10.0,-0.0967
10.01,-0.1055
10.02,-0.1055
10.03,-0.1025
10.04,-0.0762
10.05,-0.0908
10.06,-0.0352
10.07,0.0322
10.08,0.0352
10.09,-0.0967
10.1,-0.0557
10.11,-0.0322
10.12,-0.0234
10.13,-0.0146
10.14,-0.0029
10.15,-0.0029
10.16,0.0322
10.17,-0.0381
10.18,0.0117
10.19,0.0322
10.2,0.0645
10.21,0.0703
10.22,0.0996
10.23,0.1055
10.24,0.0527
10.25,0.0176
10.26,0.0029
10.27,-0.1143
10.28,-0.126
10.29,-0.1084
10.3,-0.0937
10.31,-0.0381
10.32,-0.0703
10.33,-0.0322
10.34,-0.0293
10.35,-0.0732
10.36,-0.082
10.37,0.2578
10.38,1.0225
10.39,1.4941
10.4,0.1143
10.41,-0.6182
10.42,-0.4688
10.43,-0.2754
10.44,-0.249
10.45,-0.2021
10.46,-0.1846
10.47,-0.1406
10.48,-0.123
10.49,-0.1201
10.501,-0.0469
10.511,-0.0791
10.521,0.0205
10.531,-0.0293
10.541,-0.0029
10.551,0.0352
10.561,0.0088
10.571,0.0674
10.581,0.0557
10.591,0.0732
10.601,0.0439
10.611,0.0264
10.621,0.0996
10.631,0.0645
10.641,-0.0059
10.651,0.0
10.661,-0.0439
10.671,0.0205
10.681,-0.0029
10.691,-0.0469
10.701,-0.0498
10.711,-0.0205
10.721,-0.0498
10.731,-0.0732
10.741,-0.0352
10.751,-0.0322
10.761,-0.0176
10.771,0.0527
10.781,0.0205
10.791,0.0059
10.801,0.0234
10.811,-0.0205
10.821,0.0791
10.831,0.0557
10.841,0.0557
10.851,0.1201
10.861,0.1787
10.871,0.2021
10.881,0.0879
10.891,0.0381
10.901,-0.0527
10.911,-0.082
10.921,-0.0967
10.931,-0.0908
10.941,-0.0879
10.951,-0.0527
10.961,-0.0908
10.971,-0.0352
10.981,-0.0381
10.991,-0.0439
11.001,-0.0527
11.011,0.0674
11.021,0.6562
11.031,1.4707
11.041,0.6973
11.051,-0.4775
11.061,-0.6123
11.071,-0.293
11.081,-0.2402
11.091,-0.1904
11.101,-0.167
11.111,-0.1494
11.121,-0.1289
11.131,-0.1113
11.141,-0.0996
11.151,-0.0557
11.161,-0.0557
11.171,-0.0703
11.181,-0.0146
11.191,-0.0234
11.201,0.0059
11.211,0.0117
11.221,0.0322
11.231,0.0205
11.241,0.0352
11.251,0.0381
11.261,0.0322
11.271,0.0264
11.281,-0.0088
11.291,-0.0029
11.301,-0.0439
11.311,-0.0615
11.321,-0.0557
11.331,-0.0586
11.341,-0.0762
11.351,-0.1025
11.361,-0.0967
11.371,-0.0879
11.381,-0.0937
11.391,-0.082
11.401,-0.041
11.411,-0.0234
11.421,0.0
11.431,-0.041
11.441,-0.0059
11.451,-0.0293
11.461,-0.0146
11.471,-0.0029
11.481,-0.0205
11.491,0.0
11.502,0.0352
11.512,0.0264
11.522,0.0879
11.532,0.0967
11.542,0.0967
11.552,0.0557
11.562,-0.0088
11.572,-0.0762
11.582,-0.1113
11.592,-0.1318
11.602,-0.1523
11.612,-0.1025
11.622,-0.0937
11.632,-0.0937
11.642,-0.0791
11.652,-0.0615
11.662,-0.0498
11.672,-0.0937
11.682,0.2168
11.692,0.9873
11.702,1.4941
11.712,0.0908
11.722,-0.7295
11.732,-0.5156
11.742,-0.2812
11.752,-0.2373
11.762,-0.2314
11.772,-0.1846
11.782,-0.1758
11.792,-0.1436
11.802,-0.1055
11.812,-0.082
11.822,-0.0908
11.832,-0.0176
11.842,-0.0557
11.852,-0.0176
11.862,-0.041
11.872,-0.0352
11.882,0.0176
11.892,0.0234
11.902,0.0293
11.912,0.0293
11.922,0.0439
11.932,0.0557
11.942,0.041
11.952,0.0264
11.962,0.0029
11.972,-0.0176
11.982,-0.0176
11.992,0.0205
12.002,-0.0264
12.012,-0.0557
12.022,-0.0469
12.032,-0.0674
12.042,-0.0234
12.052,-0.0586
12.062,-0.0586
12.072,-0.0205
12.082,0.0088
12.092,-0.0088
12.102,0.0146
12.112,-0.0059
12.122,0.0
12.132,0.0205
12.142,-0.0146
12.152,0.0234
12.162,-0.0234
12.172,0.041
12.182,0.0645
12.192,0.0381
12.202,0.0908
12.212,0.0908
12.222,0.0703
12.232,0.0381
12.242,-0.0293
12.252,-0.0879
12.262,-0.126
12.272,-0.1201
12.282,-0.1611
12.292,-0.1406
12.302,-0.0791
12.312,-0.0879
12.322,-0.0645
12.332,-0.0469
12.342,-0.0732
12.352,0.0088
12.362,0.5156
12.372,1.3652
12.382,0.9697
12.392,-0.4951
12.402,-0.6914
12.412,-0.3516
12.422,-0.2725
12.432,-0.2051
12.442,-0.208
12.452,-0.167
12.462,-0.1641
12.472,-0.1553
12.482,-0.1406
12.492,-0.0996
12.503,-0.0615
12.513,-0.0586
12.523,-0.0146
12.533,-0.0146
12.543,0.0088
12.553,0.0088
12.563,0.0234
12.573,0.0703
12.583,0.0381
12.593,0.0908
12.603,0.0322
12.613,0.0059
12.623,0.0117
12.633,-0.0352
12.643,-0.0293
12.653,-0.0674
12.663,-0.0322
12.673,-0.0762
12.683,-0.0937
12.693,-0.0732
12.703,-0.1084
12.713,-0.1113
12.723,-0.0615
12.733,-0.0937
12.743,-0.041
12.753,-0.0469
12.763,-0.0234
12.773,-0.0234
12.783,-0.0381
12.793,-0.0059
12.803,0.0234
12.813,0.0322
12.823,0.0527
12.833,0.1201
12.843,0.123
12.853,0.0879
12.863,0.0117
12.873,-0.0352
12.883,-0.085
12.893,-0.1523
12.903,-0.1611
12.913,-0.123
12.923,-0.1289
12.933,-0.1084
12.943,-0.085
12.953,-0.085
12.963,-0.0586
12.973,-0.1318
12.983,-0.041
12.993,0.501
13.003,1.2979
13.013,0.9463
13.023,-0.3281
13.033,-0.665
13.043,-0.3662
13.053,-0.2783
13.063,-0.2578
13.073,-0.2314
13.083,-0.1904
13.093,-0.1641
13.103,-0.1201
13.113,-0.0967
13.123,-0.1055
13.133,-0.0791
13.143,-0.0527
13.153,-0.0469
13.163,-0.0176
13.173,-0.0176
13.183,0.0
13.193,-0.0234
13.203,0.0176
13.213,0.0176
13.223,0.0264
13.233,0.0205
13.243,0.0029
13.253,-0.0176
13.263,-0.0381
13.273,-0.0322
13.283,-0.0381
13.293,-0.0586
13.303,-0.0527
13.313,-0.0498
13.323,-0.1025
13.333,-0.082
13.343,-0.085
13.353,-0.085
13.363,-0.0381
13.373,-0.0264
13.383,-0.0117
13.393,-0.0029
13.403,0.0059
13.413,0.0029
13.423,0.0029
13.433,0.0
13.443,-0.0059
13.453,-0.0029
13.463,0.0498
13.473,0.0557
13.483,0.0674
13.493,0.126
13.504,0.1143
13.514,0.0586
13.524,0.0176
13.534,-0.0469
13.544,-0.1084
13.554,-0.1318
13.564,-0.1172
13.574,-0.1318
13.584,-0.0937
13.594,-0.0527
13.604,-0.0762
13.614,-0.0381
13.624,-0.0586
13.634,-0.1143
13.644,0.2139
13.654,0.9844
13.664,1.4941
13.674,0.1025
13.684,-0.665
13.694,-0.4482
13.704,-0.2725
13.714,-0.2227
13.724,-0.1904
13.734,-0.1875
13.744,-0.1084
13.754,-0.085
13.764,-0.0615
13.774,-0.082
13.784,-0.0498
13.794,-0.0352
13.804,0.0
13.814,0.0293
13.824,0.0029
13.834,0.0527
13.844,0.0615
13.854,0.0293
13.864,0.0879
13.874,0.041
13.884,0.0146
13.894,0.0469
13.904,0.0205
13.914,0.0381
13.924,0.0
13.934,-0.0146
13.944,0.0264
13.954,-0.0322
13.964,-0.0352
13.974,-0.0498
13.984,-0.082
13.994,-0.0469
14.004,-0.0381
14.014,-0.0029
14.024,-0.0234
14.034,0.0
14.044,0.0088
14.054,-0.0381
14.064,0.0557
14.074,0.0088
14.084,-0.0088
14.094,0.0352
14.104,0.0029
14.114,0.041
14.124,0.0088
14.134,0.0791
14.144,0.0791
14.154,0.0674
14.164,0.1201
14.174,0.1348
14.184,0.1084
14.194,-0.0176
14.204,0.0176
14.214,-0.1172
14.224,-0.123
14.234,-0.126
14.244,-0.0908
14.254,-0.0879
14.264,-0.0937
14.274,-0.0352
14.284,-0.0381
14.294,-0.0557
14.304,-0.0439
14.314,0.4951
14.324,1.2568
14.334,1.2217
14.344,-0.3018
14.354,-0.7119
14.364,-0.3281
14.374,-0.2461
14.384,-0.2344
14.394,-0.167
14.404,-0.1611
14.414,-0.1289
14.424,-0.085
14.434,-0.085
14.444,-0.0117
14.454,-0.085
14.464,-0.0586
14.474,-0.0469
14.484,0.0205
14.494,0.0029
14.505,-0.0205
14.515,0.0469
14.525,0.0469
14.535,0.0205
14.545,0.0498
14.555,0.0352
14.565,0.0205
14.575,0.0674
14.585,0.0029
14.595,0.0029
14.605,-0.0117
14.615,-0.0381
14.625,-0.0381
14.635,-0.0557
14.645,-0.085
14.655,-0.1143
14.665,-0.0732
14.675,-0.0937
14.685,-0.0703
14.695,-0.0586
14.705,-0.0527
14.715,-0.0352
14.725,-0.0205
14.735,-0.0117
14.745,-0.0176
14.755,-0.0059
14.765,-0.0088
14.775,-0.0059
14.785,0.0205
14.795,0.0293
14.805,0.0264
14.815,0.0908
14.825,0.0703
14.835,0.0264
14.845,-0.0029
14.855,-0.0996
14.865,-0.1465
14.875,-0.1758
14.885,-0.1904
14.895,-0.1465
14.905,-0.1553
14.915,-0.1377
14.925,-0.1494
14.935,-0.126
14.945,-0.1318
14.955,-0.1436
14.965,0.1289
14.975,0.8936
14.985,1.4941
14.995,0.0088
15.005,-0.8115
15.015,-0.5303
15.025,-0.3398
15.035,-0.3223
15.045,-0.2842
15.055,-0.252
15.065,-0.2285
15.075,-0.1846
15.085,-0.1875
15.095,-0.1523
15.105,-0.0996
15.115,-0.1201
15.125,-0.0967
15.135,-0.0762
15.145,-0.0586
15.155,-0.0439
15.165,-0.0498
15.175,-0.0293
15.185,-0.0205
15.195,-0.0059
15.205,-0.0146
15.215,-0.0264
15.225,-0.041
15.235,-0.0322
15.245,-0.0996
15.255,-0.0732
15.265,-0.0908
15.275,-0.1172
15.285,-0.1143
15.295,-0.1289
15.305,-0.1494
15.315,-0.0967
15.325,-0.1084
15.335,-0.0732
15.345,-0.0381
15.355,-0.085
15.365,-0.0586
15.375,-0.0469
15.385,-0.0029
15.395,-0.0117
15.405,-0.0146
15.415,0.0234
15.425,-0.0234
15.435,0.0
15.445,-0.0146
15.455,0.0264
15.465,0.0205
15.475,0.0264
15.485,0.0234
15.495,0.0908
15.506,0.082
15.516,0.1143
15.526,0.1523
15.536,0.0879
15.546,0.1113
15.556,0.0762
15.566,0.0029
15.576,-0.0234
15.586,-0.0615
15.596,-0.0264
15.606,-0.0352
15.616,-0.0791
15.626,-0.0557
15.636,-0.0205
15.646,-0.0059
15.656,-0.0088
15.666,0.0146
15.676,0.5244
15.686,1.3301
15.696,1.1514
15.706,-0.2988
15.716,-0.6152
15.726,-0.3076
15.736,-0.2373
15.746,-0.2578
15.756,-0.1641
15.766,-0.1289
15.776,-0.0791
15.786,-0.0791
15.796,-0.0469
15.806,-0.041
15.816,-0.0205
15.826,-0.0205
15.836,0.0029
15.846,0.0234
15.856,0.0117
15.866,0.0146
15.876,0.0498
15.886,0.0205
15.896,0.0498
15.906,0.082
15.916,0.0439
15.926,0.0
15.936,0.0322
15.946,0.0322
15.956,0.0117
15.966,0.0117
15.976,-0.0029
15.986,0.0176
15.996,-0.085
16.006,-0.085
16.016,-0.0439
16.026,-0.0908
16.036,-0.0645
16.046,-0.0205
16.056,-0.0557
16.066,0.0264
16.076,-0.0117
16.086,0.0117
16.096,0.0234
16.106,0.0293
16.116,0.0615
16.126,0.0615
16.136,0.0586
16.146,0.0439
16.156,0.0762
16.166,0.085
16.176,0.1582
16.186,0.1055
16.196,0.0498
16.206,-0.0293
16.216,-0.085
16.226,-0.1025
16.236,-0.1084
16.246,-0.1377
16.256,-0.1172
16.266,-0.0762
16.276,-0.0674
16.286,-0.0176
16.296,-0.041
16.306,-0.126
16.316,0.1201
16.326,0.8379
16.336,1.4941
16.346,0.3662
16.356,-0.5713
16.366,-0.542
16.376,-0.2607
16.386,-0.2373
16.396,-0.1963
16.406,-0.1523
16.416,-0.123
16.426,-0.1084
16.436,-0.1055
16.446,-0.0615
16.456,-0.0527
16.466,-0.0586
16.476,-0.0059
16.486,-0.0146
16.496,0.0
16.507,0.0
16.517,0.0176
16.527,0.0088
16.537,0.0469
16.547,0.0352
16.557,0.0264
16.567,0.0264
16.577,-0.0205
16.587,-0.0059
16.597,-0.0264
16.607,-0.0527
16.617,-0.0732
16.627,-0.0674
16.637,-0.0791
16.647,-0.123
16.657,-0.1143
16.667,-0.1377
16.677,-0.1172
16.687,-0.0996
16.697,-0.085
16.707,-0.0762
16.717,-0.0586
16.727,-0.0469
16.737,-0.0293
16.747,-0.0381
16.757,-0.0381
16.767,-0.0059
16.777,-0.0703
16.787,-0.0381
16.797,-0.0381
16.807,-0.0322
16.817,-0.0469
16.827,-0.041
16.837,-0.0352
16.847,0.0264
16.857,0.0059
16.867,0.0439
16.877,0.1143
16.887,0.0791
16.897,0.0205
16.907,-0.0234
16.917,-0.0732
16.927,-0.1406
16.937,-0.1348
16.947,-0.1318
16.957,-0.1055
16.967,-0.0937
16.977,-0.082
16.987,-0.0615
16.997,-0.0615
17.007,-0.1113
17.017,-0.0381
17.027,0.4248
17.037,1.2568
17.047,1.04
17.057,-0.416
17.067,-0.7002
17.077,-0.3545
17.087,-0.2578
17.097,-0.2783
17.107,-0.2227
17.117,-0.1992
17.127,-0.1934
17.137,-0.1465
17.147,-0.1377
17.157,-0.0879
17.167,-0.0937
17.177,-0.0645
17.187,-0.0586
17.197,-0.0381
17.207,-0.0029
17.217,-0.0264
17.227,-0.0029
17.237,-0.0146
17.247,0.0176
17.257,0.0029
17.267,0.0205
17.277,0.0234
17.287,-0.0088
17.297,0.0
17.307,0.0
17.317,-0.0352
17.327,-0.0088
17.337,-0.0732
17.347,-0.0381
17.357,-0.0732
17.367,-0.0703
17.377,-0.0762
17.387,-0.0322
17.397,-0.082
17.407,-0.0234
17.417,0.0
17.427,0.0
17.437,0.0469
17.447,0.0088
17.457,0.041
17.467,0.0762
17.477,-0.0205
17.487,0.0117
17.497,-0.0029
17.508,0.0234
17.518,0.0176
17.528,0.0322
17.538,0.0205
17.548,0.0
17.558,0.0615
17.568,0.0293
17.578,-0.0117
17.588,0.0732
17.598,0.0439
17.608,0.1201
17.618,0.0439
17.628,0.1201
17.638,0.1494
17.648,0.0615
17.658,0.0527
17.668,-0.0498
17.678,-0.0293
17.688,-0.0703
17.698,-0.082
17.708,-0.0527
17.718,-0.0732
17.728,-0.123
17.738,-0.0527
17.748,-0.0557
17.758,-0.0762
17.768,-0.0439
17.778,0.4219
17.788,1.2861
17.798,1.0166
17.808,-0.3955
17.818,-0.7441
17.828,-0.3604
17.838,-0.2959
17.848,-0.3018
17.858,-0.2227
17.868,-0.2139
17.878,-0.1846
17.888,-0.1523
17.898,-0.1523
17.908,-0.1143
17.918,-0.1465
17.928,-0.085
17.938,-0.0732
17.948,-0.0937
17.958,-0.0674
17.968,-0.0586
17.978,-0.0469
17.988,-0.0088
17.998,-0.0293
18.008,0.0146
18.018,-0.0234
18.028,-0.0176
18.038,-0.0674
18.048,-0.0439
18.058,-0.0732
18.068,-0.0703
18.078,-0.041
18.088,-0.0908
18.098,-0.085
18.108,-0.0732
18.118,-0.0937
18.128,-0.0996
18.138,-0.085
18.148,-0.0791
18.158,-0.1025
18.168,-0.0469
18.178,-0.0264
18.188,-0.0469
18.198,-0.0352
18.208,-0.0264
18.218,0.0059
18.228,0.0029
18.238,-0.0059
18.248,-0.0234
18.258,0.0234
18.268,0.0381
18.278,0.0439
18.288,0.0937
18.298,0.1025
18.308,0.0146
18.318,-0.0264
18.328,-0.085
18.338,-0.1348
18.348,-0.1816
18.358,-0.1758
18.368,-0.1611
18.378,-0.1641
18.388,-0.1465
18.398,-0.1523
18.408,-0.1348
18.418,-0.1465
18.428,-0.1406
18.438,0.2373
18.448,1.0166
18.458,1.4297
18.468,-0.1113
18.478,-0.7471
18.488,-0.498
18.498,-0.29
18.509,-0.3135
18.519,-0.2754
18.529,-0.2256
18.539,-0.1875
18.549,-0.1904
18.559,-0.1348
18.569,-0.0967
18.579,-0.0937
18.589,-0.082
18.599,-0.082
18.609,-0.041
18.619,-0.0469
18.629,-0.0205
18.639,0.0059
18.649,0.0
18.659,0.0234
18.669,0.0234
18.679,0.0059
18.689,0.0059
18.699,0.0
18.709,-0.0293
18.719,-0.0264
18.729,-0.082
18.739,-0.0322
18.749,-0.0615
18.759,-0.0557
18.769,-0.0674
18.779,-0.0703
18.789,-0.0703
18.799,-0.0732
18.809,-0.0732
18.819,-0.0439
18.829,-0.0234
18.839,0.0
18.849,-0.0029
18.859,0.0029
18.869,-0.0117
18.879,-0.0205
18.889,-0.0146
18.899,0.0088
18.909,-0.0059
18.919,0.0088
18.929,-0.0176
18.939,-0.0293
18.949,-0.0264
18.959,-0.0352
18.969,0.0029
18.979,-0.0205
18.989,0.0176
18.999,0.0176
19.009,0.0703
19.019,0.0469
19.029,0.1348
19.039,0.1143
19.049,0.0645
19.059,0.0439
19.069,0.0088
19.079,-0.0732
19.089,-0.0762
19.099,-0.0908
19.109,-0.0791
19.119,-0.0557
19.129,-0.0352
19.139,-0.0381
19.149,0.0
19.159,0.0293
19.169,-0.0205
19.179,0.2695
19.189,1.0898
19.199,1.4941
19.209,0.0439
19.219,-0.6797
19.229,-0.416
19.239,-0.208
19.249,-0.1758
19.259,-0.1904
19.269,-0.0996
19.279,-0.1201
19.289,-0.0937
19.299,-0.0557
19.309,-0.0498
19.319,-0.0205
19.329,0.0
19.339,0.0
19.349,0.0146
19.359,0.0205
19.369,0.0498
19.379,0.0439
19.389,0.082
19.399,0.0674
19.409,0.0439
19.419,0.0908
19.429,0.041
19.439,0.0967
19.449,0.041
19.459,0.0469
19.469,0.0146
19.479,0.0205
19.489,0.0498
19.499,0.0029
19.51,0.0293
19.52,-0.0293
19.53,-0.0117
19.54,-0.0146
19.55,-0.0176
19.56,0.0029
19.57,-0.0146
19.58,0.0645
19.59,0.0557
19.6,0.0117
19.61,0.0557
19.62,0.0498
19.63,0.0352
19.64,0.0439
19.65,0.0146
19.66,0.0146
19.67,0.0059
19.68,-0.0234
19.69,0.0146
19.7,-0.0176
19.71,0.0439
19.72,-0.0029
19.73,0.085
19.74,0.1377
19.75,0.1084
19.76,0.1289
19.77,0.0439
19.78,-0.0352
19.79,-0.0674
19.8,-0.1172
19.81,-0.1113
19.82,-0.0527
19.83,-0.0645
19.84,-0.0996
19.85,-0.0498
19.86,-0.0029
19.87,-0.0205
19.88,0.0029
19.89,0.3926
19.9,1.2334
19.91,1.2422
19.92,-0.1934
19.93,-0.668
19.94,-0.3398
19.95,-0.2051
19.96,-0.2021
19.97,-0.1611
19.98,-0.1377
19.99,-0.1289
20.0,-0.0908
