# OpenSignals Text File Format. Version 1
# {"98:D3:91:FD:57:C6": {"position": 0, "device": "bitalino_rev", "device name": "98:D3:91:FD:57:C6", "device connection": "BTH98:D3:91:FD:57:C6", "sampling rate": 100, "resolution": [4, 1, 1, 1, 1, 10], "firmware version": 1281, "comments": "", "keywords": "", "mode": 0, "sync interval": 2, "date": "2022-6-2", "time": "9:57:50.924", "channels": [2], "sensor": ["ECGBIT"], "label": ["A2"], "column": ["nSeq", "I1", "I2", "O1", "O2", "A2"], "special": [{}], "digital IO": [0, 0, 1, 1], "convertedValues": 0}}
# EndOfHeader
0	0	0	0	0	483
1	0	0	0	0	489
2	0	0	0	0	495
3	0	0	0	0	497
4	0	0	0	0	503
5	0	0	0	0	502
6	0	0	0	0	507
7	0	0	0	0	510
8	0	0	0	0	510
9	0	0	0	0	509
10	0	0	0	0	509
11	0	0	0	0	510
12	0	0	0	0	509
13	0	0	0	0	511
14	0	0	0	0	512
15	0	0	0	0	509
0	0	0	0	0	508
1	0	0	0	0	513
2	0	0	0	0	511
3	0	0	0	0	509
4	0	0	0	0	510
5	0	0	0	0	509
6	0	0	0	0	511
7	0	0	0	0	511
8	0	0	0	0	512
9	0	0	0	0	510
10	0	0	0	0	509
11	0	0	0	0	514
12	0	0	0	0	512
13	0	0	0	0	512
14	0	0	0	0	511
15	0	0	0	0	509
0	0	0	0	0	508
1	0	0	0	0	510
2	0	0	0	0	511
3	0	0	0	0	510
4	0	0	0	0	509
5	0	0	0	0	509
6	0	0	0	0	506
7	0	0	0	0	506
8	0	0	0	0	508
9	0	0	0	0	508
10	0	0	0	0	508
11	0	0	0	0	505
12	0	0	0	0	509
13	0	0	0	0	515
14	0	0	0	0	526
15	0	0	0	0	528
0	0	0	0	0	536
1	0	0	0	0	544
2	0	0	0	0	531
3	0	0	0	0	519
4	0	0	0	0	509
5	0	0	0	0	489
6	0	0	0	0	478
7	0	0	0	0	477
8	0	0	0	0	479
9	0	0	0	0	483
10	0	0	0	0	483
11	0	0	0	0	487
12	0	0	0	0	492
13	0	0	0	0	489
14	0	0	0	0	496
15	0	0	0	0	500
0	0	0	0	0	506
1	0	0	0	0	495
2	0	0	0	0	583
3	0	0	0	0	836
4	0	0	0	0	1022
5	0	0	0	0	620
6	0	0	0	0	275
7	0	0	0	0	324
8	0	0	0	0	425
9	0	0	0	0	427
10	0	0	0	0	431
11	0	0	0	0	436
12	0	0	0	0	448
13	0	0	0	0	457
14	0	0	0	0	464
15	0	0	0	0	472
0	0	0	0	0	477
1	0	0	0	0	487
2	0	0	0	0	493
3	0	0	0	0	495
4	0	0	0	0	498
5	0	0	0	0	505
6	0	0	0	0	507
7	0	0	0	0	516
8	0	0	0	0	519
9	0	0	0	0	527
10	0	0	0	0	529
11	0	0	0	0	539
12	0	0	0	0	547
13	0	0	0	0	555
14	0	0	0	0	556
15	0	0	0	0	558
0	0	0	0	0	557
1	0	0	0	0	552
2	0	0	0	0	544
3	0	0	0	0	518
4	0	0	0	0	488
5	0	0	0	0	460
6	0	0	0	0	442
7	0	0	0	0	425
8	0	0	0	0	419
9	0	0	0	0	427
10	0	0	0	0	430
11	0	0	0	0	438
12	0	0	0	0	446
13	0	0	0	0	455
14	0	0	0	0	464
15	0	0	0	0	467
0	0	0	0	0	481
1	0	0	0	0	485
2	0	0	0	0	496
3	0	0	0	0	498
4	0	0	0	0	502
5	0	0	0	0	509
6	0	0	0	0	511
7	0	0	0	0	512
8	0	0	0	0	512
9	0	0	0	0	513
10	0	0	0	0	513
11	0	0	0	0	511
12	0	0	0	0	513
13	0	0	0	0	515
14	0	0	0	0	512
15	0	0	0	0	515
0	0	0	0	0	514
1	0	0	0	0	512
2	0	0	0	0	514
3	0	0	0	0	515
4	0	0	0	0	515
5	0	0	0	0	514
6	0	0	0	0	517
7	0	0	0	0	517
8	0	0	0	0	516
9	0	0	0	0	516
10	0	0	0	0	516
11	0	0	0	0	518
12	0	0	0	0	516
13	0	0	0	0	514
14	0	0	0	0	515
15	0	0	0	0	515
0	0	0	0	0	518
1	0	0	0	0	518
2	0	0	0	0	518
3	0	0	0	0	518
4	0	0	0	0	515
5	0	0	0	0	517
6	0	0	0	0	516
7	0	0	0	0	515
8	0	0	0	0	523
9	0	0	0	0	536
10	0	0	0	0	537
11	0	0	0	0	547
12	0	0	0	0	554
13	0	0	0	0	541
14	0	0	0	0	528
15	0	0	0	0	518
0	0	0	0	0	500
1	0	0	0	0	487
2	0	0	0	0	484
3	0	0	0	0	486
4	0	0	0	0	488
5	0	0	0	0	490
6	0	0	0	0	491
7	0	0	0	0	495
8	0	0	0	0	498
9	0	0	0	0	503
10	0	0	0	0	504
11	0	0	0	0	511
12	0	0	0	0	504
13	0	0	0	0	535
14	0	0	0	0	705
15	0	0	0	0	987
0	0	0	0	0	900
1	0	0	0	0	368
2	0	0	0	0	280
3	0	0	0	0	409
4	0	0	0	0	432
5	0	0	0	0	433
6	0	0	0	0	443
7	0	0	0	0	447
8	0	0	0	0	455
9	0	0	0	0	467
10	0	0	0	0	476
11	0	0	0	0	483
12	0	0	0	0	484
13	0	0	0	0	493
14	0	0	0	0	498
15	0	0	0	0	503
0	0	0	0	0	505
1	0	0	0	0	512
2	0	0	0	0	519
3	0	0	0	0	519
4	0	0	0	0	524
5	0	0	0	0	535
6	0	0	0	0	540
7	0	0	0	0	548
8	0	0	0	0	555
9	0	0	0	0	557
10	0	0	0	0	562
11	0	0	0	0	560
12	0	0	0	0	559
13	0	0	0	0	548
14	0	0	0	0	526
15	0	0	0	0	500
0	0	0	0	0	467
1	0	0	0	0	439
2	0	0	0	0	424
3	0	0	0	0	415
4	0	0	0	0	417
5	0	0	0	0	423
6	0	0	0	0	431
7	0	0	0	0	438
8	0	0	0	0	445
9	0	0	0	0	456
10	0	0	0	0	464
11	0	0	0	0	472
12	0	0	0	0	479
13	0	0	0	0	486
14	0	0	0	0	493
15	0	0	0	0	499
0	0	0	0	0	500
1	0	0	0	0	504
2	0	0	0	0	507
3	0	0	0	0	510
4	0	0	0	0	510
5	0	0	0	0	508
6	0	0	0	0	508
7	0	0	0	0	511
8	0	0	0	0	512
9	0	0	0	0	511
10	0	0	0	0	511
11	0	0	0	0	511
12	0	0	0	0	509
13	0	0	0	0	509
14	0	0	0	0	511
15	0	0	0	0	512
0	0	0	0	0	513
1	0	0	0	0	511
2	0	0	0	0	513
3	0	0	0	0	512
4	0	0	0	0	513
5	0	0	0	0	515
6	0	0	0	0	513
7	0	0	0	0	512
8	0	0	0	0	510
9	0	0	0	0	511
10	0	0	0	0	513
11	0	0	0	0	510
12	0	0	0	0	511
13	0	0	0	0	513
14	0	0	0	0	516
15	0	0	0	0	516
0	0	0	0	0	515
1	0	0	0	0	513
2	0	0	0	0	513
3	0	0	0	0	515
4	0	0	0	0	512
5	0	0	0	0	512
6	0	0	0	0	518
7	0	0	0	0	513
8	0	0	0	0	512
9	0	0	0	0	514
10	0	0	0	0	512
11	0	0	0	0	512
12	0	0	0	0	514
13	0	0	0	0	532
14	0	0	0	0	532
15	0	0	0	0	534
0	0	0	0	0	545
1	0	0	0	0	541
2	0	0	0	0	527
3	0	0	0	0	520
4	0	0	0	0	501
5	0	0	0	0	489
6	0	0	0	0	479
7	0	0	0	0	481
8	0	0	0	0	482
9	0	0	0	0	486
10	0	0	0	0	488
11	0	0	0	0	489
12	0	0	0	0	494
13	0	0	0	0	499
14	0	0	0	0	500
15	0	0	0	0	505
0	0	0	0	0	504
1	0	0	0	0	506
2	0	0	0	0	631
3	0	0	0	0	901
4	0	0	0	0	1022
5	0	0	0	0	497
6	0	0	0	0	248
7	0	0	0	0	380
8	0	0	0	0	428
9	0	0	0	0	427
10	0	0	0	0	432
11	0	0	0	0	440
12	0	0	0	0	451
13	0	0	0	0	455
14	0	0	0	0	465
15	0	0	0	0	473
0	0	0	0	0	481
1	0	0	0	0	490
2	0	0	0	0	491
3	0	0	0	0	497
4	0	0	0	0	502
5	0	0	0	0	510
6	0	0	0	0	512
7	0	0	0	0	517
8	0	0	0	0	524
9	0	0	0	0	529
10	0	0	0	0	534
11	0	0	0	0	541
12	0	0	0	0	550
13	0	0	0	0	557
14	0	0	0	0	562
15	0	0	0	0	563
0	0	0	0	0	562
1	0	0	0	0	554
2	0	0	0	0	540
3	0	0	0	0	516
4	0	0	0	0	484
5	0	0	0	0	451
6	0	0	0	0	430
7	0	0	0	0	419
8	0	0	0	0	416
9	0	0	0	0	417
10	0	0	0	0	422
11	0	0	0	0	434
12	0	0	0	0	445
13	0	0	0	0	450
14	0	0	0	0	461
15	0	0	0	0	469
0	0	0	0	0	478
1	0	0	0	0	484
2	0	0	0	0	488
3	0	0	0	0	494
4	0	0	0	0	499
5	0	0	0	0	499
6	0	0	0	0	506
7	0	0	0	0	511
8	0	0	0	0	511
9	0	0	0	0	512
10	0	0	0	0	512
11	0	0	0	0	513
12	0	0	0	0	515
13	0	0	0	0	510
14	0	0	0	0	512
15	0	0	0	0	511
0	0	0	0	0	512
1	0	0	0	0	509
2	0	0	0	0	512
3	0	0	0	0	515
4	0	0	0	0	514
5	0	0	0	0	514
6	0	0	0	0	513
7	0	0	0	0	514
8	0	0	0	0	515
9	0	0	0	0	514
10	0	0	0	0	512
11	0	0	0	0	512
12	0	0	0	0	516
13	0	0	0	0	516
14	0	0	0	0	512
15	0	0	0	0	515
0	0	0	0	0	514
1	0	0	0	0	512
2	0	0	0	0	516
3	0	0	0	0	513
4	0	0	0	0	512
5	0	0	0	0	513
6	0	0	0	0	514
7	0	0	0	0	514
8	0	0	0	0	512
9	0	0	0	0	513
10	0	0	0	0	515
11	0	0	0	0	513
12	0	0	0	0	513
13	0	0	0	0	507
14	0	0	0	0	511
15	0	0	0	0	510
0	0	0	0	0	512
1	0	0	0	0	512
2	0	0	0	0	509
3	0	0	0	0	510
4	0	0	0	0	508
5	0	0	0	0	511
6	0	0	0	0	528
7	0	0	0	0	531
8	0	0	0	0	536
9	0	0	0	0	544
10	0	0	0	0	540
11	0	0	0	0	529
12	0	0	0	0	522
13	0	0	0	0	507
14	0	0	0	0	490
15	0	0	0	0	481
0	0	0	0	0	483
1	0	0	0	0	483
2	0	0	0	0	486
3	0	0	0	0	487
4	0	0	0	0	487
5	0	0	0	0	495
6	0	0	0	0	497
7	0	0	0	0	500
8	0	0	0	0	504
9	0	0	0	0	506
10	0	0	0	0	502
11	0	0	0	0	614
12	0	0	0	0	874
13	0	0	0	0	1022
14	0	0	0	0	537
15	0	0	0	0	251
0	0	0	0	0	371
1	0	0	0	0	432
2	0	0	0	0	426
3	0	0	0	0	432
4	0	0	0	0	441
5	0	0	0	0	448
6	0	0	0	0	461
7	0	0	0	0	467
8	0	0	0	0	475
9	0	0	0	0	481
10	0	0	0	0	485
11	0	0	0	0	491
12	0	0	0	0	497
13	0	0	0	0	501
14	0	0	0	0	506
15	0	0	0	0	508
0	0	0	0	0	516
1	0	0	0	0	522
2	0	0	0	0	527
3	0	0	0	0	534
4	0	0	0	0	538
5	0	0	0	0	547
6	0	0	0	0	556
7	0	0	0	0	558
8	0	0	0	0	565
9	0	0	0	0	561
10	0	0	0	0	557
11	0	0	0	0	541
12	0	0	0	0	516
13	0	0	0	0	491
14	0	0	0	0	455
15	0	0	0	0	433
0	0	0	0	0	417
1	0	0	0	0	412
2	0	0	0	0	417
3	0	0	0	0	422
4	0	0	0	0	430
5	0	0	0	0	437
6	0	0	0	0	446
7	0	0	0	0	458
8	0	0	0	0	466
9	0	0	0	0	475
10	0	0	0	0	479
11	0	0	0	0	485
12	0	0	0	0	491
13	0	0	0	0	495
14	0	0	0	0	500
15	0	0	0	0	502
0	0	0	0	0	507
1	0	0	0	0	507
2	0	0	0	0	508
3	0	0	0	0	510
4	0	0	0	0	509
5	0	0	0	0	509
6	0	0	0	0	509
7	0	0	0	0	508
8	0	0	0	0	512
9	0	0	0	0	506
10	0	0	0	0	507
11	0	0	0	0	515
12	0	0	0	0	514
13	0	0	0	0	513
14	0	0	0	0	511
15	0	0	0	0	510
0	0	0	0	0	512
1	0	0	0	0	512
2	0	0	0	0	514
3	0	0	0	0	510
4	0	0	0	0	511
5	0	0	0	0	512
6	0	0	0	0	515
7	0	0	0	0	516
8	0	0	0	0	511
9	0	0	0	0	516
10	0	0	0	0	518
11	0	0	0	0	513
12	0	0	0	0	518
13	0	0	0	0	514
14	0	0	0	0	511
15	0	0	0	0	513
0	0	0	0	0	511
1	0	0	0	0	514
2	0	0	0	0	515
3	0	0	0	0	512
4	0	0	0	0	511
5	0	0	0	0	511
6	0	0	0	0	511
7	0	0	0	0	513
8	0	0	0	0	516
9	0	0	0	0	530
10	0	0	0	0	530
11	0	0	0	0	534
12	0	0	0	0	546
13	0	0	0	0	546
14	0	0	0	0	532
15	0	0	0	0	522
0	0	0	0	0	504
1	0	0	0	0	488
2	0	0	0	0	484
3	0	0	0	0	483
4	0	0	0	0	482
5	0	0	0	0	489
6	0	0	0	0	487
7	0	0	0	0	491
8	0	0	0	0	492
9	0	0	0	0	500
10	0	0	0	0	505
11	0	0	0	0	503
12	0	0	0	0	492
13	0	0	0	0	545
14	0	0	0	0	743
15	0	0	0	0	1006
0	0	0	0	0	797
1	0	0	0	0	368
2	0	0	0	0	297
3	0	0	0	0	408
4	0	0	0	0	433
5	0	0	0	0	436
6	0	0	0	0	445
7	0	0	0	0	456
8	0	0	0	0	460
9	0	0	0	0	467
10	0	0	0	0	477
11	0	0	0	0	483
12	0	0	0	0	491
13	0	0	0	0	495
14	0	0	0	0	501
15	0	0	0	0	502
0	0	0	0	0	509
1	0	0	0	0	515
2	0	0	0	0	520
3	0	0	0	0	523
4	0	0	0	0	527
5	0	0	0	0	531
6	0	0	0	0	535
7	0	0	0	0	546
8	0	0	0	0	551
9	0	0	0	0	555
10	0	0	0	0	558
11	0	0	0	0	562
12	0	0	0	0	559
13	0	0	0	0	550
14	0	0	0	0	529
15	0	0	0	0	510
0	0	0	0	0	482
1	0	0	0	0	452
2	0	0	0	0	435
3	0	0	0	0	428
4	0	0	0	0	430
5	0	0	0	0	433
6	0	0	0	0	436
7	0	0	0	0	447
8	0	0	0	0	453
9	0	0	0	0	462
10	0	0	0	0	472
11	0	0	0	0	479
12	0	0	0	0	489
13	0	0	0	0	493
14	0	0	0	0	497
15	0	0	0	0	499
0	0	0	0	0	502
1	0	0	0	0	506
2	0	0	0	0	506
3	0	0	0	0	504
4	0	0	0	0	511
5	0	0	0	0	512
6	0	0	0	0	510
7	0	0	0	0	508
8	0	0	0	0	508
9	0	0	0	0	510
10	0	0	0	0	509
11	0	0	0	0	511
12	0	0	0	0	509
13	0	0	0	0	510
14	0	0	0	0	512
15	0	0	0	0	510
0	0	0	0	0	514
1	0	0	0	0	515
2	0	0	0	0	513
3	0	0	0	0	511
4	0	0	0	0	511
5	0	0	0	0	515
6	0	0	0	0	512
7	0	0	0	0	514
8	0	0	0	0	514
9	0	0	0	0	512
10	0	0	0	0	514
11	0	0	0	0	515
12	0	0	0	0	513
13	0	0	0	0	515
14	0	0	0	0	512
15	0	0	0	0	515
0	0	0	0	0	515
1	0	0	0	0	513
2	0	0	0	0	516
3	0	0	0	0	513
4	0	0	0	0	513
5	0	0	0	0	511
6	0	0	0	0	513
7	0	0	0	0	517
8	0	0	0	0	518
9	0	0	0	0	534
10	0	0	0	0	534
11	0	0	0	0	540
12	0	0	0	0	550
13	0	0	0	0	540
14	0	0	0	0	530
15	0	0	0	0	518
0	0	0	0	0	498
1	0	0	0	0	487
2	0	0	0	0	479
3	0	0	0	0	481
4	0	0	0	0	482
5	0	0	0	0	484
6	0	0	0	0	488
7	0	0	0	0	495
8	0	0	0	0	495
9	0	0	0	0	499
10	0	0	0	0	503
11	0	0	0	0	508
12	0	0	0	0	491
13	0	0	0	0	586
14	0	0	0	0	841
15	0	0	0	0	1022
0	0	0	0	0	618
1	0	0	0	0	257
2	0	0	0	0	336
3	0	0	0	0	433
4	0	0	0	0	429
5	0	0	0	0	434
6	0	0	0	0	440
7	0	0	0	0	453
8	0	0	0	0	461
9	0	0	0	0	467
10	0	0	0	0	476
11	0	0	0	0	481
12	0	0	0	0	487
13	0	0	0	0	493
14	0	0	0	0	499
15	0	0	0	0	503
0	0	0	0	0	504
1	0	0	0	0	512
2	0	0	0	0	518
3	0	0	0	0	523
4	0	0	0	0	530
5	0	0	0	0	532
6	0	0	0	0	541
7	0	0	0	0	545
8	0	0	0	0	551
9	0	0	0	0	560
10	0	0	0	0	561
11	0	0	0	0	562
12	0	0	0	0	557
13	0	0	0	0	545
14	0	0	0	0	526
15	0	0	0	0	495
0	0	0	0	0	468
1	0	0	0	0	440
2	0	0	0	0	423
3	0	0	0	0	417
4	0	0	0	0	415
5	0	0	0	0	424
6	0	0	0	0	430
7	0	0	0	0	440
8	0	0	0	0	450
9	0	0	0	0	456
10	0	0	0	0	465
11	0	0	0	0	474
12	0	0	0	0	483
13	0	0	0	0	490
14	0	0	0	0	494
15	0	0	0	0	497
0	0	0	0	0	499
1	0	0	0	0	504
2	0	0	0	0	505
3	0	0	0	0	507
4	0	0	0	0	510
5	0	0	0	0	508
6	0	0	0	0	509
7	0	0	0	0	511
8	0	0	0	0	509
9	0	0	0	0	512
10	0	0	0	0	512
11	0	0	0	0	512
12	0	0	0	0	511
13	0	0	0	0	511
14	0	0	0	0	510
15	0	0	0	0	512
0	0	0	0	0	511
1	0	0	0	0	513
2	0	0	0	0	510
3	0	0	0	0	511
4	0	0	0	0	512
5	0	0	0	0	513
6	0	0	0	0	515
7	0	0	0	0	514
8	0	0	0	0	515
9	0	0	0	0	513
10	0	0	0	0	512
11	0	0	0	0	514
12	0	0	0	0	512
13	0	0	0	0	513
14	0	0	0	0	516
15	0	0	0	0	511
0	0	0	0	0	514
1	0	0	0	0	513
2	0	0	0	0	516
3	0	0	0	0	512
4	0	0	0	0	512
5	0	0	0	0	513
6	0	0	0	0	513
7	0	0	0	0	512
8	0	0	0	0	514
9	0	0	0	0	512
10	0	0	0	0	512
11	0	0	0	0	512
12	0	0	0	0	512
13	0	0	0	0	520
14	0	0	0	0	534
15	0	0	0	0	531
0	0	0	0	0	530
1	0	0	0	0	542
2	0	0	0	0	536
3	0	0	0	0	521
4	0	0	0	0	512
5	0	0	0	0	492
6	0	0	0	0	486
7	0	0	0	0	483
8	0	0	0	0	487
9	0	0	0	0	487
10	0	0	0	0	487
11	0	0	0	0	491
12	0	0	0	0	496
13	0	0	0	0	498
14	0	0	0	0	502
15	0	0	0	0	504
0	0	0	0	0	507
1	0	0	0	0	494
2	0	0	0	0	581
3	0	0	0	0	829
4	0	0	0	0	1022
5	0	0	0	0	654
6	0	0	0	0	263
7	0	0	0	0	334
8	0	0	0	0	426
9	0	0	0	0	422
10	0	0	0	0	429
11	0	0	0	0	437
12	0	0	0	0	445
13	0	0	0	0	453
14	0	0	0	0	462
15	0	0	0	0	469
0	0	0	0	0	475
1	0	0	0	0	482
2	0	0	0	0	491
3	0	0	0	0	494
4	0	0	0	0	499
5	0	0	0	0	503
6	0	0	0	0	506
7	0	0	0	0	514
8	0	0	0	0	516
9	0	0	0	0	523
10	0	0	0	0	530
11	0	0	0	0	536
12	0	0	0	0	546
13	0	0	0	0	551
14	0	0	0	0	556
15	0	0	0	0	557
0	0	0	0	0	561
1	0	0	0	0	558
2	0	0	0	0	547
3	0	0	0	0	526
4	0	0	0	0	496
5	0	0	0	0	464
6	0	0	0	0	440
7	0	0	0	0	422
8	0	0	0	0	415
9	0	0	0	0	414
10	0	0	0	0	420
11	0	0	0	0	429
12	0	0	0	0	438
13	0	0	0	0	450
14	0	0	0	0	455
15	0	0	0	0	464
0	0	0	0	0	475
1	0	0	0	0	479
2	0	0	0	0	483
3	0	0	0	0	493
4	0	0	0	0	494
5	0	0	0	0	498
6	0	0	0	0	505
7	0	0	0	0	506
8	0	0	0	0	505
9	0	0	0	0	505
10	0	0	0	0	511
11	0	0	0	0	507
12	0	0	0	0	510
13	0	0	0	0	509
14	0	0	0	0	508
15	0	0	0	0	510
0	0	0	0	0	509
1	0	0	0	0	510
2	0	0	0	0	507
3	0	0	0	0	507
4	0	0	0	0	509
5	0	0	0	0	510
6	0	0	0	0	512
7	0	0	0	0	511
8	0	0	0	0	512
9	0	0	0	0	515
10	0	0	0	0	514
11	0	0	0	0	513
12	0	0	0	0	512
13	0	0	0	0	511
14	0	0	0	0	513
15	0	0	0	0	511
0	0	0	0	0	512
1	0	0	0	0	512
2	0	0	0	0	512
3	0	0	0	0	515
4	0	0	0	0	511
5	0	0	0	0	514
6	0	0	0	0	515
7	0	0	0	0	515
8	0	0	0	0	514
9	0	0	0	0	513
10	0	0	0	0	514
11	0	0	0	0	515
12	0	0	0	0	520
13	0	0	0	0	530
14	0	0	0	0	527
15	0	0	0	0	525
0	0	0	0	0	537
1	0	0	0	0	529
2	0	0	0	0	522
3	0	0	0	0	518
4	0	0	0	0	503
5	0	0	0	0	494
6	0	0	0	0	493
7	0	0	0	0	496
8	0	0	0	0	495
9	0	0	0	0	495
10	0	0	0	0	502
11	0	0	0	0	503
12	0	0	0	0	507
13	0	0	0	0	509
14	0	0	0	0	511
15	0	0	0	0	515
0	0	0	0	0	502
1	0	0	0	0	553
2	0	0	0	0	755
3	0	0	0	0	1019
4	0	0	0	0	791
5	0	0	0	0	345
6	0	0	0	0	295
7	0	0	0	0	410
8	0	0	0	0	434
9	0	0	0	0	438
10	0	0	0	0	442
11	0	0	0	0	453
12	0	0	0	0	460
13	0	0	0	0	467
14	0	0	0	0	473
15	0	0	0	0	483
0	0	0	0	0	489
1	0	0	0	0	495
2	0	0	0	0	498
3	0	0	0	0	506
4	0	0	0	0	505
5	0	0	0	0	512
6	0	0	0	0	518
7	0	0	0	0	521
8	0	0	0	0	526
9	0	0	0	0	532
10	0	0	0	0	540
11	0	0	0	0	545
12	0	0	0	0	551
13	0	0	0	0	556
14	0	0	0	0	560
15	0	0	0	0	559
0	0	0	0	0	553
1	0	0	0	0	548
2	0	0	0	0	536
3	0	0	0	0	506
4	0	0	0	0	479
5	0	0	0	0	453
6	0	0	0	0	436
7	0	0	0	0	428
8	0	0	0	0	425
9	0	0	0	0	430
10	0	0	0	0	435
11	0	0	0	0	443
12	0	0	0	0	452
13	0	0	0	0	462
14	0	0	0	0	472
15	0	0	0	0	477
0	0	0	0	0	484
1	0	0	0	0	491
2	0	0	0	0	495
3	0	0	0	0	499
4	0	0	0	0	503
5	0	0	0	0	506
6	0	0	0	0	508
7	0	0	0	0	505
8	0	0	0	0	510
9	0	0	0	0	508
10	0	0	0	0	509
11	0	0	0	0	511
12	0	0	0	0	509
13	0	0	0	0	510
14	0	0	0	0	506
15	0	0	0	0	509
0	0	0	0	0	512
1	0	0	0	0	512
2	0	0	0	0	513
3	0	0	0	0	509
4	0	0	0	0	513
5	0	0	0	0	514
6	0	0	0	0	511
7	0	0	0	0	514
8	0	0	0	0	512
9	0	0	0	0	515
10	0	0	0	0	514
11	0	0	0	0	513
12	0	0	0	0	515
13	0	0	0	0	515
14	0	0	0	0	515
15	0	0	0	0	517
0	0	0	0	0	514
1	0	0	0	0	516
2	0	0	0	0	513
3	0	0	0	0	512
4	0	0	0	0	513
5	0	0	0	0	512
6	0	0	0	0	514
7	0	0	0	0	512
8	0	0	0	0	510
9	0	0	0	0	512
10	0	0	0	0	515
11	0	0	0	0	522
12	0	0	0	0	525
13	0	0	0	0	526
14	0	0	0	0	519
15	0	0	0	0	526
0	0	0	0	0	521
1	0	0	0	0	517
2	0	0	0	0	506
3	0	0	0	0	497
4	0	0	0	0	487
5	0	0	0	0	491
6	0	0	0	0	490
7	0	0	0	0	495
8	0	0	0	0	499
9	0	0	0	0	497
10	0	0	0	0	500
11	0	0	0	0	501
12	0	0	0	0	505
13	0	0	0	0	512
14	0	0	0	0	513
15	0	0	0	0	503
0	0	0	0	0	551
1	0	0	0	0	752
2	0	0	0	0	1022
3	0	0	0	0	805
4	0	0	0	0	312
5	0	0	0	0	301
6	0	0	0	0	419
7	0	0	0	0	429
8	0	0	0	0	427
9	0	0	0	0	439
10	0	0	0	0	446
11	0	0	0	0	451
12	0	0	0	0	464
13	0	0	0	0	465
14	0	0	0	0	478
15	0	0	0	0	483
0	0	0	0	0	488
1	0	0	0	0	492
2	0	0	0	0	494
3	0	0	0	0	506
4	0	0	0	0	508
5	0	0	0	0	511
6	0	0	0	0	518
7	0	0	0	0	523
8	0	0	0	0	527
9	0	0	0	0	536
10	0	0	0	0	542
11	0	0	0	0	547
12	0	0	0	0	556
13	0	0	0	0	559
14	0	0	0	0	559
15	0	0	0	0	555
0	0	0	0	0	547
1	0	0	0	0	533
2	0	0	0	0	508
3	0	0	0	0	472
4	0	0	0	0	444
5	0	0	0	0	426
6	0	0	0	0	415
7	0	0	0	0	417
8	0	0	0	0	421
9	0	0	0	0	427
10	0	0	0	0	438
11	0	0	0	0	444
12	0	0	0	0	455
13	0	0	0	0	464
14	0	0	0	0	472
15	0	0	0	0	479
0	0	0	0	0	484
1	0	0	0	0	491
2	0	0	0	0	494
3	0	0	0	0	499
4	0	0	0	0	503
5	0	0	0	0	506
6	0	0	0	0	510
7	0	0	0	0	508
8	0	0	0	0	507
9	0	0	0	0	508
10	0	0	0	0	509
11	0	0	0	0	513
12	0	0	0	0	509
13	0	0	0	0	511
14	0	0	0	0	515
15	0	0	0	0	511
0	0	0	0	0	512
1	0	0	0	0	513
2	0	0	0	0	512
3	0	0	0	0	512
4	0	0	0	0	511
5	0	0	0	0	514
6	0	0	0	0	514
7	0	0	0	0	511
8	0	0	0	0	513
9	0	0	0	0	513
10	0	0	0	0	517
11	0	0	0	0	513
12	0	0	0	0	511
13	0	0	0	0	514
14	0	0	0	0	513
15	0	0	0	0	515
0	0	0	0	0	515
1	0	0	0	0	512
2	0	0	0	0	512
3	0	0	0	0	514
4	0	0	0	0	513
5	0	0	0	0	511
6	0	0	0	0	512
7	0	0	0	0	512
8	0	0	0	0	509
9	0	0	0	0	511
10	0	0	0	0	511
11	0	0	0	0	511
12	0	0	0	0	512
13	0	0	0	0	519
14	0	0	0	0	519
15	0	0	0	0	526
0	0	0	0	0	518
1	0	0	0	0	524
2	0	0	0	0	520
3	0	0	0	0	516
4	0	0	0	0	509
5	0	0	0	0	502
6	0	0	0	0	492
7	0	0	0	0	486
8	0	0	0	0	490
9	0	0	0	0	487
10	0	0	0	0	494
11	0	0	0	0	497
12	0	0	0	0	500
13	0	0	0	0	503
14	0	0	0	0	505
15	0	0	0	0	506
0	0	0	0	0	511
1	0	0	0	0	505
2	0	0	0	0	516
3	0	0	0	0	665
4	0	0	0	0	938
5	0	0	0	0	1016
6	0	0	0	0	454
7	0	0	0	0	260
8	0	0	0	0	373
9	0	0	0	0	425
10	0	0	0	0	428
11	0	0	0	0	432
12	0	0	0	0	441
13	0	0	0	0	446
14	0	0	0	0	456
15	0	0	0	0	462
0	0	0	0	0	465
1	0	0	0	0	475
2	0	0	0	0	483
3	0	0	0	0	487
4	0	0	0	0	494
5	0	0	0	0	496
6	0	0	0	0	503
7	0	0	0	0	508
8	0	0	0	0	514
9	0	0	0	0	522
10	0	0	0	0	524
11	0	0	0	0	531
12	0	0	0	0	537
13	0	0	0	0	543
14	0	0	0	0	550
15	0	0	0	0	554
0	0	0	0	0	558
1	0	0	0	0	559
2	0	0	0	0	554
3	0	0	0	0	541
4	0	0	0	0	517
5	0	0	0	0	486
6	0	0	0	0	457
7	0	0	0	0	439
8	0	0	0	0	424
9	0	0	0	0	421
10	0	0	0	0	421
11	0	0	0	0	430
12	0	0	0	0	438
13	0	0	0	0	444
14	0	0	0	0	452
15	0	0	0	0	462
0	0	0	0	0	471
1	0	0	0	0	480
2	0	0	0	0	485
3	0	0	0	0	489
4	0	0	0	0	498
5	0	0	0	0	498
6	0	0	0	0	505
7	0	0	0	0	509
8	0	0	0	0	507
9	0	0	0	0	511
10	0	0	0	0	510
11	0	0	0	0	512
12	0	0	0	0	513
13	0	0	0	0	510
14	0	0	0	0	513
15	0	0	0	0	513
0	0	0	0	0	513
1	0	0	0	0	513
2	0	0	0	0	513
3	0	0	0	0	512
4	0	0	0	0	511
5	0	0	0	0	515
6	0	0	0	0	520
7	0	0	0	0	516
8	0	0	0	0	516
9	0	0	0	0	516
10	0	0	0	0	519
11	0	0	0	0	519
12	0	0	0	0	519
13	0	0	0	0	518
14	0	0	0	0	516
15	0	0	0	0	516
0	0	0	0	0	519
1	0	0	0	0	517
2	0	0	0	0	515
3	0	0	0	0	515
4	0	0	0	0	519
5	0	0	0	0	519
6	0	0	0	0	523
7	0	0	0	0	527
8	0	0	0	0	536
9	0	0	0	0	523
10	0	0	0	0	532
11	0	0	0	0	527
12	0	0	0	0	526
13	0	0	0	0	519
14	0	0	0	0	511
15	0	0	0	0	498
0	0	0	0	0	495
1	0	0	0	0	499
2	0	0	0	0	499
3	0	0	0	0	503
4	0	0	0	0	504
5	0	0	0	0	504
6	0	0	0	0	508
7	0	0	0	0	509
8	0	0	0	0	513
9	0	0	0	0	515
10	0	0	0	0	516
11	0	0	0	0	514
12	0	0	0	0	641
13	0	0	0	0	904
14	0	0	0	0	1022
15	0	0	0	0	519
0	0	0	0	0	270
1	0	0	0	0	362
2	0	0	0	0	433
3	0	0	0	0	433
4	0	0	0	0	435
5	0	0	0	0	444
6	0	0	0	0	454
7	0	0	0	0	462
8	0	0	0	0	471
9	0	0	0	0	476
10	0	0	0	0	481
11	0	0	0	0	487
12	0	0	0	0	494
13	0	0	0	0	499
14	0	0	0	0	506
15	0	0	0	0	510
0	0	0	0	0	511
1	0	0	0	0	516
2	0	0	0	0	524
3	0	0	0	0	528
4	0	0	0	0	531
5	0	0	0	0	537
6	0	0	0	0	544
7	0	0	0	0	553
8	0	0	0	0	556
9	0	0	0	0	559
10	0	0	0	0	558
11	0	0	0	0	551
12	0	0	0	0	541
13	0	0	0	0	514
14	0	0	0	0	489
15	0	0	0	0	459
0	0	0	0	0	437
1	0	0	0	0	423
2	0	0	0	0	421
3	0	0	0	0	423
4	0	0	0	0	428
5	0	0	0	0	439
6	0	0	0	0	446
7	0	0	0	0	455
8	0	0	0	0	463
9	0	0	0	0	472
10	0	0	0	0	480
11	0	0	0	0	489
12	0	0	0	0	492
13	0	0	0	0	498
14	0	0	0	0	501
15	0	0	0	0	503
0	0	0	0	0	511
1	0	0	0	0	511
2	0	0	0	0	509
3	0	0	0	0	510
4	0	0	0	0	510
5	0	0	0	0	510
6	0	0	0	0	510
7	0	0	0	0	510
8	0	0	0	0	511
9	0	0	0	0	512
10	0	0	0	0	514
11	0	0	0	0	510
12	0	0	0	0	511
13	0	0	0	0	514
14	0	0	0	0	511
15	0	0	0	0	509
0	0	0	0	0	511
1	0	0	0	0	512
2	0	0	0	0	511
3	0	0	0	0	515
4	0	0	0	0	515
5	0	0	0	0	513
6	0	0	0	0	511
7	0	0	0	0	514
8	0	0	0	0	513
9	0	0	0	0	516
10	0	0	0	0	514
11	0	0	0	0	508
12	0	0	0	0	511
13	0	0	0	0	513
14	0	0	0	0	516
15	0	0	0	0	514
0	0	0	0	0	514
1	0	0	0	0	512
2	0	0	0	0	510
3	0	0	0	0	514
4	0	0	0	0	515
5	0	0	0	0	521
6	0	0	0	0	527
7	0	0	0	0	528
8	0	0	0	0	521
9	0	0	0	0	529
10	0	0	0	0	526
11	0	0	0	0	520
12	0	0	0	0	510
13	0	0	0	0	506
14	0	0	0	0	492
15	0	0	0	0	492
0	0	0	0	0	491
1	0	0	0	0	494
2	0	0	0	0	495
3	0	0	0	0	499
4	0	0	0	0	499
5	0	0	0	0	503
6	0	0	0	0	506
7	0	0	0	0	509
8	0	0	0	0	511
9	0	0	0	0	509
10	0	0	0	0	518
11	0	0	0	0	664
12	0	0	0	0	938
13	0	0	0	0	1021
14	0	0	0	0	438
15	0	0	0	0	259
0	0	0	0	0	395
1	0	0	0	0	432
2	0	0	0	0	428
3	0	0	0	0	432
4	0	0	0	0	444
5	0	0	0	0	453
6	0	0	0	0	459
7	0	0	0	0	467
8	0	0	0	0	475
9	0	0	0	0	480
10	0	0	0	0	487
11	0	0	0	0	494
12	0	0	0	0	496
13	0	0	0	0	501
14	0	0	0	0	508
15	0	0	0	0	511
0	0	0	0	0	518
1	0	0	0	0	521
2	0	0	0	0	527
3	0	0	0	0	534
4	0	0	0	0	536
5	0	0	0	0	547
6	0	0	0	0	554
7	0	0	0	0	561
8	0	0	0	0	562
9	0	0	0	0	560
10	0	0	0	0	553
11	0	0	0	0	540
12	0	0	0	0	518
13	0	0	0	0	486
14	0	0	0	0	452
15	0	0	0	0	432
0	0	0	0	0	417
1	0	0	0	0	412
2	0	0	0	0	418
3	0	0	0	0	422
4	0	0	0	0	435
5	0	0	0	0	442
6	0	0	0	0	451
7	0	0	0	0	458
8	0	0	0	0	467
9	0	0	0	0	479
10	0	0	0	0	485
11	0	0	0	0	490
12	0	0	0	0	494
13	0	0	0	0	499
14	0	0	0	0	499
15	0	0	0	0	505
0	0	0	0	0	510
1	0	0	0	0	509
2	0	0	0	0	510
3	0	0	0	0	512
4	0	0	0	0	511
5	0	0	0	0	509
6	0	0	0	0	510
7	0	0	0	0	508
8	0	0	0	0	513
9	0	0	0	0	510
10	0	0	0	0	511
11	0	0	0	0	508
12	0	0	0	0	509
13	0	0	0	0	513
14	0	0	0	0	510
15	0	0	0	0	511
0	0	0	0	0	511
1	0	0	0	0	512
2	0	0	0	0	513
3	0	0	0	0	512
4	0	0	0	0	513
5	0	0	0	0	512
6	0	0	0	0	514
7	0	0	0	0	514
8	0	0	0	0	512
9	0	0	0	0	510
10	0	0	0	0	509
11	0	0	0	0	508
12	0	0	0	0	515
13	0	0	0	0	515
14	0	0	0	0	512
15	0	0	0	0	510
0	0	0	0	0	508
1	0	0	0	0	512
2	0	0	0	0	509
3	0	0	0	0	511
4	0	0	0	0	511
5	0	0	0	0	507
6	0	0	0	0	511
7	0	0	0	0	512
8	0	0	0	0	516
9	0	0	0	0	526
10	0	0	0	0	522
11	0	0	0	0	516
12	0	0	0	0	523
13	0	0	0	0	518
14	0	0	0	0	516
15	0	0	0	0	511
0	0	0	0	0	504
1	0	0	0	0	492
2	0	0	0	0	487
3	0	0	0	0	490
4	0	0	0	0	492
5	0	0	0	0	493
6	0	0	0	0	494
7	0	0	0	0	498
8	0	0	0	0	502
9	0	0	0	0	507
10	0	0	0	0	509
11	0	0	0	0	506
12	0	0	0	0	507
13	0	0	0	0	518
14	0	0	0	0	655
15	0	0	0	0	921
0	0	0	0	0	1022
1	0	0	0	0	482
2	0	0	0	0	264
3	0	0	0	0	363
4	0	0	0	0	430
5	0	0	0	0	426
6	0	0	0	0	435
7	0	0	0	0	441
8	0	0	0	0	450
9	0	0	0	0	457
10	0	0	0	0	463
11	0	0	0	0	471
12	0	0	0	0	479
13	0	0	0	0	488
14	0	0	0	0	491
15	0	0	0	0	494
0	0	0	0	0	503
1	0	0	0	0	505
2	0	0	0	0	509
3	0	0	0	0	513
4	0	0	0	0	520
5	0	0	0	0	524
6	0	0	0	0	531
7	0	0	0	0	536
8	0	0	0	0	541
9	0	0	0	0	550
10	0	0	0	0	555
11	0	0	0	0	560
12	0	0	0	0	559
13	0	0	0	0	554
14	0	0	0	0	537
15	0	0	0	0	519
0	0	0	0	0	491
1	0	0	0	0	459
2	0	0	0	0	436
3	0	0	0	0	421
4	0	0	0	0	419
5	0	0	0	0	421
6	0	0	0	0	428
7	0	0	0	0	434
8	0	0	0	0	443
9	0	0	0	0	454
10	0	0	0	0	461
11	0	0	0	0	472
12	0	0	0	0	478
13	0	0	0	0	483
14	0	0	0	0	491
15	0	0	0	0	496
0	0	0	0	0	501
1	0	0	0	0	508
2	0	0	0	0	510
3	0	0	0	0	510
4	0	0	0	0	513
5	0	0	0	0	511
6	0	0	0	0	515
7	0	0	0	0	511
8	0	0	0	0	511
9	0	0	0	0	510
10	0	0	0	0	511
11	0	0	0	0	511
12	0	0	0	0	513
13	0	0	0	0	516
14	0	0	0	0	512
15	0	0	0	0	513
0	0	0	0	0	517
1	0	0	0	0	512
2	0	0	0	0	514
3	0	0	0	0	515
4	0	0	0	0	516
5	0	0	0	0	515
6	0	0	0	0	511
7	0	0	0	0	518
8	0	0	0	0	518
9	0	0	0	0	516
10	0	0	0	0	521
11	0	0	0	0	517
12	0	0	0	0	516
13	0	0	0	0	518
14	0	0	0	0	514
15	0	0	0	0	516
0	0	0	0	0	516
1	0	0	0	0	516
2	0	0	0	0	514
3	0	0	0	0	523
4	0	0	0	0	530
5	0	0	0	0	534
6	0	0	0	0	525
7	0	0	0	0	530
8	0	0	0	0	530
9	0	0	0	0	532
10	0	0	0	0	520
11	0	0	0	0	512
12	0	0	0	0	500
13	0	0	0	0	496
14	0	0	0	0	498
15	0	0	0	0	502
0	0	0	0	0	505
1	0	0	0	0	507
2	0	0	0	0	501
3	0	0	0	0	509
4	0	0	0	0	510
5	0	0	0	0	512
6	0	0	0	0	517
7	0	0	0	0	517
8	0	0	0	0	503
9	0	0	0	0	567
10	0	0	0	0	791
11	0	0	0	0	1022
12	0	0	0	0	718
13	0	0	0	0	312
14	0	0	0	0	309
15	0	0	0	0	424
0	0	0	0	0	434
1	0	0	0	0	436
2	0	0	0	0	445
3	0	0	0	0	453
4	0	0	0	0	459
5	0	0	0	0	465
6	0	0	0	0	473
7	0	0	0	0	483
8	0	0	0	0	488
9	0	0	0	0	493
10	0	0	0	0	499
11	0	0	0	0	502
12	0	0	0	0	507
13	0	0	0	0	512
14	0	0	0	0	515
15	0	0	0	0	523
0	0	0	0	0	525
1	0	0	0	0	531
2	0	0	0	0	538
3	0	0	0	0	545
4	0	0	0	0	552
5	0	0	0	0	557
6	0	0	0	0	560
7	0	0	0	0	558
8	0	0	0	0	559
9	0	0	0	0	549
10	0	0	0	0	527
11	0	0	0	0	503
12	0	0	0	0	469
13	0	0	0	0	443
14	0	0	0	0	428
15	0	0	0	0	420
0	0	0	0	0	419
1	0	0	0	0	426
2	0	0	0	0	431
3	0	0	0	0	442
4	0	0	0	0	450
5	0	0	0	0	460
6	0	0	0	0	467
7	0	0	0	0	476
8	0	0	0	0	483
9	0	0	0	0	487
10	0	0	0	0	496
11	0	0	0	0	501
12	0	0	0	0	504
13	0	0	0	0	508
14	0	0	0	0	508
15	0	0	0	0	510
0	0	0	0	0	510
1	0	0	0	0	511
2	0	0	0	0	512
3	0	0	0	0	508
4	0	0	0	0	511
5	0	0	0	0	511
6	0	0	0	0	511
7	0	0	0	0	512
8	0	0	0	0	512
9	0	0	0	0	513
10	0	0	0	0	509
11	0	0	0	0	510
12	0	0	0	0	512
13	0	0	0	0	507
14	0	0	0	0	513
15	0	0	0	0	513
0	0	0	0	0	513
1	0	0	0	0	516
2	0	0	0	0	516
3	0	0	0	0	513
4	0	0	0	0	512
5	0	0	0	0	511
6	0	0	0	0	509
7	0	0	0	0	511
8	0	0	0	0	510
9	0	0	0	0	512
10	0	0	0	0	512
11	0	0	0	0	513
12	0	0	0	0	511
13	0	0	0	0	512
14	0	0	0	0	512
15	0	0	0	0	512
0	0	0	0	0	510
1	0	0	0	0	510
2	0	0	0	0	510
3	0	0	0	0	512
4	0	0	0	0	513
5	0	0	0	0	512
6	0	0	0	0	513
7	0	0	0	0	514
8	0	0	0	0	520
9	0	0	0	0	526
10	0	0	0	0	525
11	0	0	0	0	521
12	0	0	0	0	530
13	0	0	0	0	520
14	0	0	0	0	514
15	0	0	0	0	512
0	0	0	0	0	502
1	0	0	0	0	492
2	0	0	0	0	489
3	0	0	0	0	491
4	0	0	0	0	496
5	0	0	0	0	495
6	0	0	0	0	499
7	0	0	0	0	502
8	0	0	0	0	502
9	0	0	0	0	504
10	0	0	0	0	512
11	0	0	0	0	513
12	0	0	0	0	514
13	0	0	0	0	518
14	0	0	0	0	659
15	0	0	0	0	936
0	0	0	0	0	1022
1	0	0	0	0	441
2	0	0	0	0	251
3	0	0	0	0	391
4	0	0	0	0	429
5	0	0	0	0	426
6	0	0	0	0	433
7	0	0	0	0	440
8	0	0	0	0	451
9	0	0	0	0	457
10	0	0	0	0	465
11	0	0	0	0	472
12	0	0	0	0	476
13	0	0	0	0	484
14	0	0	0	0	491
15	0	0	0	0	495
0	0	0	0	0	500
1	0	0	0	0	505
2	0	0	0	0	505
3	0	0	0	0	516
4	0	0	0	0	522
5	0	0	0	0	529
6	0	0	0	0	531
7	0	0	0	0	541
8	0	0	0	0	545
9	0	0	0	0	555
10	0	0	0	0	560
11	0	0	0	0	564
12	0	0	0	0	561
13	0	0	0	0	555
14	0	0	0	0	545
15	0	0	0	0	519
0	0	0	0	0	489
1	0	0	0	0	457
2	0	0	0	0	431
3	0	0	0	0	416
4	0	0	0	0	408
5	0	0	0	0	411
6	0	0	0	0	425
7	0	0	0	0	429
8	0	0	0	0	439
9	0	0	0	0	447
10	0	0	0	0	455
11	0	0	0	0	465
12	0	0	0	0	472
13	0	0	0	0	480
14	0	0	0	0	485
15	0	0	0	0	486
0	0	0	0	0	496
1	0	0	0	0	499
2	0	0	0	0	505
3	0	0	0	0	505
4	0	0	0	0	505
5	0	0	0	0	511
6	0	0	0	0	507
7	0	0	0	0	509
8	0	0	0	0	508
9	0	0	0	0	511
10	0	0	0	0	508
11	0	0	0	0	510
12	0	0	0	0	510
13	0	0	0	0	510
14	0	0	0	0	510
15	0	0	0	0	508
0	0	0	0	0	509
1	0	0	0	0	512
2	0	0	0	0	507
3	0	0	0	0	512
4	0	0	0	0	515
5	0	0	0	0	511
6	0	0	0	0	513
7	0	0	0	0	511
8	0	0	0	0	512
9	0	0	0	0	514
10	0	0	0	0	512
11	0	0	0	0	512
12	0	0	0	0	514
13	0	0	0	0	512
14	0	0	0	0	516
15	0	0	0	0	513
0	0	0	0	0	511
1	0	0	0	0	511
2	0	0	0	0	508
3	0	0	0	0	514
4	0	0	0	0	511
5	0	0	0	0	511
6	0	0	0	0	509
7	0	0	0	0	510
8	0	0	0	0	511
9	0	0	0	0	511
10	0	0	0	0	508
11	0	0	0	0	512
12	0	0	0	0	509
13	0	0	0	0	512
14	0	0	0	0	513
15	0	0	0	0	515
0	0	0	0	0	514
1	0	0	0	0	520
2	0	0	0	0	526
3	0	0	0	0	514
4	0	0	0	0	521
5	0	0	0	0	520
6	0	0	0	0	519
7	0	0	0	0	507
8	0	0	0	0	498
9	0	0	0	0	489
10	0	0	0	0	490
11	0	0	0	0	494
12	0	0	0	0	493
13	0	0	0	0	496
14	0	0	0	0	497
15	0	0	0	0	499
0	0	0	0	0	501
1	0	0	0	0	507
2	0	0	0	0	511
3	0	0	0	0	511
4	0	0	0	0	500
5	0	0	0	0	548
6	0	0	0	0	758
7	0	0	0	0	1021
8	0	0	0	0	772
9	0	0	0	0	348
10	0	0	0	0	293
11	0	0	0	0	409
12	0	0	0	0	427
13	0	0	0	0	432
14	0	0	0	0	440
15	0	0	0	0	445
0	0	0	0	0	457
1	0	0	0	0	464
2	0	0	0	0	471
3	0	0	0	0	481
4	0	0	0	0	487
5	0	0	0	0	492
6	0	0	0	0	495
7	0	0	0	0	500
8	0	0	0	0	504
9	0	0	0	0	507
10	0	0	0	0	518
11	0	0	0	0	519
12	0	0	0	0	523
13	0	0	0	0	532
14	0	0	0	0	535
15	0	0	0	0	544
0	0	0	0	0	550
1	0	0	0	0	557
2	0	0	0	0	562
3	0	0	0	0	561
4	0	0	0	0	560
5	0	0	0	0	550
6	0	0	0	0	537
7	0	0	0	0	515
8	0	0	0	0	486
9	0	0	0	0	459
10	0	0	0	0	439
11	0	0	0	0	428
12	0	0	0	0	423
13	0	0	0	0	427
14	0	0	0	0	435
15	0	0	0	0	443
0	0	0	0	0	454
1	0	0	0	0	458
2	0	0	0	0	466
3	0	0	0	0	476
4	0	0	0	0	487
5	0	0	0	0	494
6	0	0	0	0	497
7	0	0	0	0	497
8	0	0	0	0	503
9	0	0	0	0	509
10	0	0	0	0	511
11	0	0	0	0	516
12	0	0	0	0	511
13	0	0	0	0	512
14	0	0	0	0	513
15	0	0	0	0	514
0	0	0	0	0	515
1	0	0	0	0	514
2	0	0	0	0	513
3	0	0	0	0	512
4	0	0	0	0	513
5	0	0	0	0	514
6	0	0	0	0	516
7	0	0	0	0	519
8	0	0	0	0	512
9	0	0	0	0	516
10	0	0	0	0	516
11	0	0	0	0	518
12	0	0	0	0	519
13	0	0	0	0	516
14	0	0	0	0	515
15	0	0	0	0	518
0	0	0	0	0	513
1	0	0	0	0	517
2	0	0	0	0	513
3	0	0	0	0	517
4	0	0	0	0	515
5	0	0	0	0	516
6	0	0	0	0	517
7	0	0	0	0	516
8	0	0	0	0	515
9	0	0	0	0	515
10	0	0	0	0	516
11	0	0	0	0	515
12	0	0	0	0	514
13	0	0	0	0	514
14	0	0	0	0	521
15	0	0	0	0	523
0	0	0	0	0	529
1	0	0	0	0	530
2	0	0	0	0	523
3	0	0	0	0	529
4	0	0	0	0	522
5	0	0	0	0	521
6	0	0	0	0	511
7	0	0	0	0	503
8	0	0	0	0	494
9	0	0	0	0	491
10	0	0	0	0	495
11	0	0	0	0	495
12	0	0	0	0	496
13	0	0	0	0	502
14	0	0	0	0	504
15	0	0	0	0	504
0	0	0	0	0	506
1	0	0	0	0	510
2	0	0	0	0	516
3	0	0	0	0	504
4	0	0	0	0	545
5	0	0	0	0	727
6	0	0	0	0	1010
7	0	0	0	0	860
8	0	0	0	0	335
9	0	0	0	0	285
10	0	0	0	0	414
11	0	0	0	0	428
12	0	0	0	0	431
13	0	0	0	0	432
14	0	0	0	0	444
15	0	0	0	0	452
0	0	0	0	0	461
1	0	0	0	0	467
2	0	0	0	0	473
3	0	0	0	0	480
4	0	0	0	0	489
5	0	0	0	0	496
6	0	0	0	0	501
7	0	0	0	0	502
8	0	0	0	0	505
9	0	0	0	0	513
10	0	0	0	0	518
11	0	0	0	0	524
12	0	0	0	0	528
13	0	0	0	0	537
14	0	0	0	0	543
15	0	0	0	0	550
0	0	0	0	0	558
1	0	0	0	0	562
2	0	0	0	0	562
3	0	0	0	0	560
4	0	0	0	0	554
5	0	0	0	0	542
6	0	0	0	0	513
7	0	0	0	0	482
8	0	0	0	0	449
9	0	0	0	0	426
10	0	0	0	0	415
11	0	0	0	0	409
12	0	0	0	0	415
13	0	0	0	0	422
14	0	0	0	0	432
15	0	0	0	0	442
0	0	0	0	0	450
1	0	0	0	0	464
2	0	0	0	0	471
3	0	0	0	0	478
4	0	0	0	0	484
5	0	0	0	0	488
6	0	0	0	0	495
7	0	0	0	0	501
8	0	0	0	0	502
9	0	0	0	0	505
10	0	0	0	0	506
11	0	0	0	0	511
12	0	0	0	0	511
13	0	0	0	0	511
14	0	0	0	0	511
15	0	0	0	0	511
0	0	0	0	0	513
1	0	0	0	0	510
2	0	0	0	0	509
3	0	0	0	0	512
4	0	0	0	0	510
5	0	0	0	0	512
6	0	0	0	0	512
7	0	0	0	0	510
8	0	0	0	0	513
9	0	0	0	0	513
10	0	0	0	0	514
11	0	0	0	0	514
12	0	0	0	0	514
13	0	0	0	0	514
14	0	0	0	0	511
15	0	0	0	0	515
0	0	0	0	0	513
1	0	0	0	0	512
2	0	0	0	0	515
3	0	0	0	0	510
4	0	0	0	0	513
5	0	0	0	0	515
6	0	0	0	0	514
7	0	0	0	0	516
8	0	0	0	0	513
9	0	0	0	0	513
10	0	0	0	0	510
11	0	0	0	0	512
12	0	0	0	0	512
13	0	0	0	0	509
14	0	0	0	0	512
15	0	0	0	0	512
0	0	0	0	0	512
1	0	0	0	0	511
2	0	0	0	0	511
3	0	0	0	0	517
4	0	0	0	0	522
5	0	0	0	0	527
6	0	0	0	0	527
7	0	0	0	0	517
8	0	0	0	0	529
9	0	0	0	0	524
10	0	0	0	0	519
11	0	0	0	0	509
12	0	0	0	0	500
13	0	0	0	0	489
14	0	0	0	0	488
15	0	0	0	0	491
0	0	0	0	0	494
1	0	0	0	0	494
2	0	0	0	0	497
3	0	0	0	0	502
4	0	0	0	0	503
5	0	0	0	0	506
6	0	0	0	0	506
7	0	0	0	0	510
8	0	0	0	0	500
9	0	0	0	0	549
10	0	0	0	0	744
11	0	0	0	0	1021
12	0	0	0	0	829
13	0	0	0	0	322
14	0	0	0	0	284
15	0	0	0	0	415
0	0	0	0	0	423
1	0	0	0	0	423
2	0	0	0	0	432
3	0	0	0	0	442
4	0	0	0	0	449
5	0	0	0	0	458
6	0	0	0	0	465
7	0	0	0	0	470
8	0	0	0	0	477
9	0	0	0	0	482
10	0	0	0	0	489
11	0	0	0	0	496
12	0	0	0	0	500
13	0	0	0	0	502
14	0	0	0	0	510
15	0	0	0	0	515
0	0	0	0	0	521
1	0	0	0	0	524
2	0	0	0	0	531
3	0	0	0	0	537
4	0	0	0	0	545
5	0	0	0	0	555
6	0	0	0	0	562
7	0	0	0	0	563
8	0	0	0	0	562
9	0	0	0	0	553
10	0	0	0	0	537
11	0	0	0	0	514
12	0	0	0	0	480
13	0	0	0	0	452
14	0	0	0	0	428
15	0	0	0	0	414
0	0	0	0	0	415
1	0	0	0	0	414
2	0	0	0	0	422
3	0	0	0	0	429
4	0	0	0	0	443
5	0	0	0	0	449
6	0	0	0	0	457
7	0	0	0	0	472
8	0	0	0	0	475
9	0	0	0	0	480
10	0	0	0	0	488
11	0	0	0	0	493
12	0	0	0	0	498
13	0	0	0	0	500
14	0	0	0	0	502
15	0	0	0	0	504
0	0	0	0	0	505
1	0	0	0	0	510
2	0	0	0	0	513
3	0	0	0	0	510
4	0	0	0	0	511
5	0	0	0	0	508
6	0	0	0	0	511
7	0	0	0	0	511
8	0	0	0	0	512
9	0	0	0	0	511
10	0	0	0	0	513
11	0	0	0	0	513
12	0	0	0	0	509
13	0	0	0	0	513
14	0	0	0	0	509
15	0	0	0	0	513
0	0	0	0	0	515
1	0	0	0	0	514
2	0	0	0	0	515
3	0	0	0	0	513
4	0	0	0	0	515
5	0	0	0	0	515
6	0	0	0	0	513
7	0	0	0	0	515
8	0	0	0	0	514
9	0	0	0	0	508
10	0	0	0	0	515
11	0	0	0	0	515
12	0	0	0	0	515
13	0	0	0	0	515
14	0	0	0	0	513
15	0	0	0	0	520
0	0	0	0	0	526
1	0	0	0	0	529
2	0	0	0	0	531
3	0	0	0	0	523
4	0	0	0	0	533
5	0	0	0	0	526
6	0	0	0	0	522
7	0	0	0	0	516
8	0	0	0	0	505
9	0	0	0	0	497
10	0	0	0	0	495
11	0	0	0	0	497
12	0	0	0	0	501
13	0	0	0	0	500
14	0	0	0	0	506
15	0	0	0	0	507
0	0	0	0	0	512
1	0	0	0	0	513
2	0	0	0	0	512
3	0	0	0	0	515
4	0	0	0	0	510
5	0	0	0	0	536
6	0	0	0	0	699
7	0	0	0	0	965
8	0	0	0	0	963
9	0	0	0	0	430
10	0	0	0	0	278
11	0	0	0	0	389
12	0	0	0	0	436
13	0	0	0	0	436
14	0	0	0	0	438
15	0	0	0	0	451
0	0	0	0	0	460
1	0	0	0	0	466
2	0	0	0	0	470
3	0	0	0	0	478
4	0	0	0	0	489
5	0	0	0	0	494
6	0	0	0	0	499
7	0	0	0	0	503
8	0	0	0	0	504
9	0	0	0	0	509
10	0	0	0	0	513
11	0	0	0	0	519
12	0	0	0	0	524
13	0	0	0	0	530
14	0	0	0	0	536
15	0	0	0	0	544
0	0	0	0	0	550
1	0	0	0	0	555
2	0	0	0	0	560
3	0	0	0	0	559
4	0	0	0	0	559
5	0	0	0	0	555
6	0	0	0	0	547
7	0	0	0	0	521
8	0	0	0	0	491
9	0	0	0	0	459
10	0	0	0	0	437
11	0	0	0	0	429
12	0	0	0	0	422
13	0	0	0	0	425
14	0	0	0	0	428
15	0	0	0	0	439
0	0	0	0	0	451
1	0	0	0	0	457
2	0	0	0	0	467
3	0	0	0	0	476
4	0	0	0	0	484
5	0	0	0	0	487
6	0	0	0	0	494
7	0	0	0	0	498
8	0	0	0	0	502
9	0	0	0	0	503
10	0	0	0	0	506
11	0	0	0	0	508
12	0	0	0	0	512
13	0	0	0	0	510
14	0	0	0	0	511
15	0	0	0	0	514
0	0	0	0	0	510
1	0	0	0	0	509
2	0	0	0	0	511
3	0	0	0	0	510
4	0	0	0	0	513
5	0	0	0	0	513
6	0	0	0	0	510
7	0	0	0	0	511
8	0	0	0	0	514
9	0	0	0	0	515
10	0	0	0	0	513
11	0	0	0	0	512
12	0	0	0	0	513
13	0	0	0	0	511
14	0	0	0	0	516
15	0	0	0	0	515
0	0	0	0	0	516
1	0	0	0	0	513
2	0	0	0	0	514
3	0	0	0	0	514
4	0	0	0	0	510
5	0	0	0	0	515
6	0	0	0	0	513
7	0	0	0	0	515
8	0	0	0	0	513
9	0	0	0	0	512
10	0	0	0	0	514
11	0	0	0	0	515
12	0	0	0	0	514
13	0	0	0	0	513
14	0	0	0	0	512
15	0	0	0	0	515
0	0	0	0	0	522
1	0	0	0	0	527
2	0	0	0	0	530
3	0	0	0	0	518
4	0	0	0	0	528
5	0	0	0	0	524
6	0	0	0	0	519
7	0	0	0	0	512
8	0	0	0	0	503
9	0	0	0	0	489
10	0	0	0	0	491
11	0	0	0	0	491
12	0	0	0	0	496
13	0	0	0	0	495
14	0	0	0	0	499
15	0	0	0	0	499
0	0	0	0	0	502
1	0	0	0	0	509
2	0	0	0	0	509
3	0	0	0	0	510
4	0	0	0	0	512
5	0	0	0	0	515
6	0	0	0	0	649
7	0	0	0	0	923
8	0	0	0	0	1022
9	0	0	0	0	478
10	0	0	0	0	249
11	0	0	0	0	385
12	0	0	0	0	431
13	0	0	0	0	427
14	0	0	0	0	432
15	0	0	0	0	440
0	0	0	0	0	451
1	0	0	0	0	456
2	0	0	0	0	466
3	0	0	0	0	474
4	0	0	0	0	478
5	0	0	0	0	487
6	0	0	0	0	492
7	0	0	0	0	498
8	0	0	0	0	501
9	0	0	0	0	504
10	0	0	0	0	511
11	0	0	0	0	512
12	0	0	0	0	519
13	0	0	0	0	525
14	0	0	0	0	530
15	0	0	0	0	540
0	0	0	0	0	547
1	0	0	0	0	553
2	0	0	0	0	560
3	0	0	0	0	563
4	0	0	0	0	561
5	0	0	0	0	555
6	0	0	0	0	545
7	0	0	0	0	524
8	0	0	0	0	496
9	0	0	0	0	465
10	0	0	0	0	438
11	0	0	0	0	419
12	0	0	0	0	411
13	0	0	0	0	415
14	0	0	0	0	421
15	0	0	0	0	428
0	0	0	0	0	437
1	0	0	0	0	444
2	0	0	0	0	455
3	0	0	0	0	466
4	0	0	0	0	471
5	0	0	0	0	481
6	0	0	0	0	488
7	0	0	0	0	490
8	0	0	0	0	497
9	0	0	0	0	500
10	0	0	0	0	504
11	0	0	0	0	506
12	0	0	0	0	509
13	0	0	0	0	512
14	0	0	0	0	510
15	0	0	0	0	511
0	0	0	0	0	508
1	0	0	0	0	509
2	0	0	0	0	509
3	0	0	0	0	510
4	0	0	0	0	510
5	0	0	0	0	511
6	0	0	0	0	513
7	0	0	0	0	512
8	0	0	0	0	511
9	0	0	0	0	512
10	0	0	0	0	512
11	0	0	0	0	511
12	0	0	0	0	513
13	0	0	0	0	512
14	0	0	0	0	515
15	0	0	0	0	514
0	0	0	0	0	515
1	0	0	0	0	516
2	0	0	0	0	514
3	0	0	0	0	514
4	0	0	0	0	516
5	0	0	0	0	511
6	0	0	0	0	514
7	0	0	0	0	512
8	0	0	0	0	513
9	0	0	0	0	513
10	0	0	0	0	512
11	0	0	0	0	512
12	0	0	0	0	512
13	0	0	0	0	511
14	0	0	0	0	511
15	0	0	0	0	510
0	0	0	0	0	512
1	0	0	0	0	511
2	0	0	0	0	510
3	0	0	0	0	509
4	0	0	0	0	507
5	0	0	0	0	512
6	0	0	0	0	510
7	0	0	0	0	507
8	0	0	0	0	510
9	0	0	0	0	510
10	0	0	0	0	510
11	0	0	0	0	513
12	0	0	0	0	515
13	0	0	0	0	521
14	0	0	0	0	523
15	0	0	0	0	514
0	0	0	0	0	522
1	0	0	0	0	519
2	0	0	0	0	517
3	0	0	0	0	512
4	0	0	0	0	502
5	0	0	0	0	487
6	0	0	0	0	485
7	0	0	0	0	489
8	0	0	0	0	487
9	0	0	0	0	494
10	0	0	0	0	497
11	0	0	0	0	496
12	0	0	0	0	500
13	0	0	0	0	502
14	0	0	0	0	508
15	0	0	0	0	509
0	0	0	0	0	510
1	0	0	0	0	512
2	0	0	0	0	647
3	0	0	0	0	914
4	0	0	0	0	1022
5	0	0	0	0	493
6	0	0	0	0	264
7	0	0	0	0	362
8	0	0	0	0	427
9	0	0	0	0	425
10	0	0	0	0	429
11	0	0	0	0	440
12	0	0	0	0	448
13	0	0	0	0	456
14	0	0	0	0	464
15	0	0	0	0	472
0	0	0	0	0	478
1	0	0	0	0	482
2	0	0	0	0	489
3	0	0	0	0	492
4	0	0	0	0	500
5	0	0	0	0	503
6	0	0	0	0	508
7	0	0	0	0	511
8	0	0	0	0	518
9	0	0	0	0	523
10	0	0	0	0	531
11	0	0	0	0	535
12	0	0	0	0	542
13	0	0	0	0	553
14	0	0	0	0	557
15	0	0	0	0	560
0	0	0	0	0	561
1	0	0	0	0	558
2	0	0	0	0	550
3	0	0	0	0	531
4	0	0	0	0	508
5	0	0	0	0	472
6	0	0	0	0	448
7	0	0	0	0	432
8	0	0	0	0	420
9	0	0	0	0	422
10	0	0	0	0	428
11	0	0	0	0	433
12	0	0	0	0	442
13	0	0	0	0	451
14	0	0	0	0	460
15	0	0	0	0	470
0	0	0	0	0	480
1	0	0	0	0	484
2	0	0	0	0	487
3	0	0	0	0	496
4	0	0	0	0	500
5	0	0	0	0	504
6	0	0	0	0	508
7	0	0	0	0	508
8	0	0	0	0	515
9	0	0	0	0	515
10	0	0	0	0	514
11	0	0	0	0	512
12	0	0	0	0	514
13	0	0	0	0	515
14	0	0	0	0	515
15	0	0	0	0	516
0	0	0	0	0	513
1	0	0	0	0	514
2	0	0	0	0	517
3	0	0	0	0	515
4	0	0	0	0	518
5	0	0	0	0	516
6	0	0	0	0	515
7	0	0	0	0	516
8	0	0	0	0	519
9	0	0	0	0	515
10	0	0	0	0	516
11	0	0	0	0	515
12	0	0	0	0	519
13	0	0	0	0	518
14	0	0	0	0	520
15	0	0	0	0	520
0	0	0	0	0	518
1	0	0	0	0	515
2	0	0	0	0	517
3	0	0	0	0	516
4	0	0	0	0	517
5	0	0	0	0	515
6	0	0	0	0	521
7	0	0	0	0	519
8	0	0	0	0	517
9	0	0	0	0	525
10	0	0	0	0	527
11	0	0	0	0	537
12	0	0	0	0	523
13	0	0	0	0	529
14	0	0	0	0	529
15	0	0	0	0	523
0	0	0	0	0	519
1	0	0	0	0	510
2	0	0	0	0	498
3	0	0	0	0	495
4	0	0	0	0	495
5	0	0	0	0	499
6	0	0	0	0	498
7	0	0	0	0	502
8	0	0	0	0	505
9	0	0	0	0	504
10	0	0	0	0	508
11	0	0	0	0	509
12	0	0	0	0	514
13	0	0	0	0	516
14	0	0	0	0	509
15	0	0	0	0	611
0	0	0	0	0	863
1	0	0	0	0	1022
2	0	0	0	0	596
3	0	0	0	0	273
4	0	0	0	0	340
5	0	0	0	0	430
6	0	0	0	0	429
7	0	0	0	0	434
8	0	0	0	0	440
9	0	0	0	0	451
10	0	0	0	0	459
11	0	0	0	0	466
12	0	0	0	0	470
13	0	0	0	0	479
14	0	0	0	0	485
15	0	0	0	0	490
0	0	0	0	0	498
1	0	0	0	0	503
2	0	0	0	0	505
3	0	0	0	0	510
4	0	0	0	0	515
5	0	0	0	0	523
6	0	0	0	0	524
7	0	0	0	0	526
8	0	0	0	0	534
9	0	0	0	0	544
10	0	0	0	0	553
11	0	0	0	0	557
12	0	0	0	0	562
13	0	0	0	0	561
14	0	0	0	0	557
15	0	0	0	0	550
0	0	0	0	0	535
1	0	0	0	0	503
2	0	0	0	0	469
3	0	0	0	0	445
4	0	0	0	0	428
5	0	0	0	0	419
6	0	0	0	0	418
7	0	0	0	0	422
8	0	0	0	0	432
9	0	0	0	0	441
10	0	0	0	0	451
11	0	0	0	0	457
12	0	0	0	0	464
13	0	0	0	0	472
14	0	0	0	0	480
15	0	0	0	0	488
0	0	0	0	0	494
1	0	0	0	0	501
2	0	0	0	0	503
3	0	0	0	0	504
4	0	0	0	0	504
5	0	0	0	0	510
6	0	0	0	0	509
7	0	0	0	0	510
8	0	0	0	0	510
9	0	0	0	0	510
10	0	0	0	0	508
11	0	0	0	0	512
12	0	0	0	0	511
13	0	0	0	0	512
14	0	0	0	0	511
15	0	0	0	0	510
0	0	0	0	0	509
1	0	0	0	0	512
2	0	0	0	0	512
3	0	0	0	0	512
4	0	0	0	0	513
5	0	0	0	0	514
6	0	0	0	0	512
7	0	0	0	0	515
8	0	0	0	0	513
9	0	0	0	0	513
10	0	0	0	0	512
11	0	0	0	0	514
12	0	0	0	0	513
13	0	0	0	0	514
14	0	0	0	0	513
15	0	0	0	0	516
0	0	0	0	0	515
1	0	0	0	0	514
2	0	0	0	0	515
3	0	0	0	0	515
4	0	0	0	0	516
5	0	0	0	0	514
6	0	0	0	0	513
7	0	0	0	0	515
8	0	0	0	0	512
9	0	0	0	0	511
10	0	0	0	0	512
11	0	0	0	0	514
12	0	0	0	0	513
13	0	0	0	0	512
14	0	0	0	0	512
15	0	0	0	0	509
0	0	0	0	0	513
1	0	0	0	0	511
2	0	0	0	0	511
3	0	0	0	0	512
4	0	0	0	0	511
5	0	0	0	0	519
6	0	0	0	0	524
7	0	0	0	0	522
8	0	0	0	0	519
9	0	0	0	0	525
10	0	0	0	0	521
11	0	0	0	0	515
12	0	0	0	0	509
13	0	0	0	0	504
14	0	0	0	0	490
15	0	0	0	0	488
0	0	0	0	0	492
1	0	0	0	0	492
2	0	0	0	0	495
3	0	0	0	0	495
4	0	0	0	0	495
5	0	0	0	0	502
6	0	0	0	0	504
7	0	0	0	0	507
8	0	0	0	0	513
9	0	0	0	0	508
10	0	0	0	0	515
11	0	0	0	0	655
12	0	0	0	0	936
13	0	0	0	0	1022
14	0	0	0	0	444
15	0	0	0	0	256
0	0	0	0	0	390
1	0	0	0	0	428
2	0	0	0	0	424
3	0	0	0	0	429
4	0	0	0	0	437
5	0	0	0	0	445
6	0	0	0	0	456
7	0	0	0	0	466
8	0	0	0	0	470
9	0	0	0	0	479
10	0	0	0	0	483
11	0	0	0	0	488
12	0	0	0	0	494
13	0	0	0	0	499
14	0	0	0	0	501
15	0	0	0	0	506
0	0	0	0	0	515
1	0	0	0	0	517
2	0	0	0	0	521
3	0	0	0	0	526
4	0	0	0	0	536
5	0	0	0	0	544
6	0	0	0	0	551
7	0	0	0	0	558
8	0	0	0	0	560
9	0	0	0	0	560
10	0	0	0	0	560
11	0	0	0	0	549
12	0	0	0	0	529
13	0	0	0	0	500
14	0	0	0	0	467
15	0	0	0	0	439
0	0	0	0	0	420
1	0	0	0	0	410
2	0	0	0	0	408
3	0	0	0	0	415
4	0	0	0	0	424
5	0	0	0	0	431
6	0	0	0	0	443
7	0	0	0	0	455
8	0	0	0	0	461
9	0	0	0	0	470
10	0	0	0	0	474
11	0	0	0	0	487
12	0	0	0	0	491
13	0	0	0	0	494
14	0	0	0	0	501
15	0	0	0	0	497
0	0	0	0	0	503
1	0	0	0	0	509
2	0	0	0	0	505
3	0	0	0	0	507
4	0	0	0	0	504
5	0	0	0	0	508
6	0	0	0	0	512
7	0	0	0	0	510
8	0	0	0	0	511
9	0	0	0	0	510
10	0	0	0	0	509
11	0	0	0	0	507
12	0	0	0	0	507
13	0	0	0	0	508
14	0	0	0	0	506
15	0	0	0	0	508
0	0	0	0	0	512
1	0	0	0	0	515
2	0	0	0	0	511
3	0	0	0	0	513
4	0	0	0	0	516
5	0	0	0	0	511
6	0	0	0	0	512
7	0	0	0	0	516
8	0	0	0	0	514
9	0	0	0	0	514
10	0	0	0	0	511
11	0	0	0	0	514
12	0	0	0	0	514
13	0	0	0	0	510
14	0	0	0	0	513
15	0	0	0	0	514
0	0	0	0	0	515
1	0	0	0	0	516
2	0	0	0	0	511
3	0	0	0	0	510
4	0	0	0	0	512
5	0	0	0	0	512
6	0	0	0	0	515
7	0	0	0	0	510
8	0	0	0	0	511
9	0	0	0	0	514
10	0	0	0	0	519
11	0	0	0	0	521
12	0	0	0	0	527
13	0	0	0	0	518
14	0	0	0	0	526
15	0	0	0	0	522
0	0	0	0	0	521
1	0	0	0	0	513
2	0	0	0	0	507
3	0	0	0	0	500
4	0	0	0	0	492
5	0	0	0	0	495
6	0	0	0	0	497
7	0	0	0	0	499
8	0	0	0	0	503
9	0	0	0	0	502
10	0	0	0	0	506
11	0	0	0	0	504
12	0	0	0	0	512
13	0	0	0	0	515
14	0	0	0	0	511
15	0	0	0	0	520
0	0	0	0	0	678
1	0	0	0	0	939
2	0	0	0	0	1017
3	0	0	0	0	462
4	0	0	0	0	272
5	0	0	0	0	375
6	0	0	0	0	434
7	0	0	0	0	432
8	0	0	0	0	434
9	0	0	0	0	447
10	0	0	0	0	457
11	0	0	0	0	464
12	0	0	0	0	471
13	0	0	0	0	479
14	0	0	0	0	484
15	0	0	0	0	490
0	0	0	0	0	493
1	0	0	0	0	502
2	0	0	0	0	500
3	0	0	0	0	511
4	0	0	0	0	515
5	0	0	0	0	516
6	0	0	0	0	524
7	0	0	0	0	525
8	0	0	0	0	536
9	0	0	0	0	536
10	0	0	0	0	546
11	0	0	0	0	551
12	0	0	0	0	559
13	0	0	0	0	563
14	0	0	0	0	559
15	0	0	0	0	557
0	0	0	0	0	548
1	0	0	0	0	531
2	0	0	0	0	507
3	0	0	0	0	473
4	0	0	0	0	448
5	0	0	0	0	435
6	0	0	0	0	425
7	0	0	0	0	426
8	0	0	0	0	431
9	0	0	0	0	438
10	0	0	0	0	447
11	0	0	0	0	455
12	0	0	0	0	466
13	0	0	0	0	473
14	0	0	0	0	480
15	0	0	0	0	489
0	0	0	0	0	493
1	0	0	0	0	499
2	0	0	0	0	500
3	0	0	0	0	506
4	0	0	0	0	508
5	0	0	0	0	506
6	0	0	0	0	510
7	0	0	0	0	509
8	0	0	0	0	510
9	0	0	0	0	512
10	0	0	0	0	511
11	0	0	0	0	515
12	0	0	0	0	511
13	0	0	0	0	510
14	0	0	0	0	514
15	0	0	0	0	512
0	0	0	0	0	514
1	0	0	0	0	513
2	0	0	0	0	516
3	0	0	0	0	513
4	0	0	0	0	513
5	0	0	0	0	512
6	0	0	0	0	516
7	0	0	0	0	516
8	0	0	0	0	517
9	0	0	0	0	513
10	0	0	0	0	514
11	0	0	0	0	513
12	0	0	0	0	514
13	0	0	0	0	516
14	0	0	0	0	516
15	0	0	0	0	513
0	0	0	0	0	512
1	0	0	0	0	514
2	0	0	0	0	515
3	0	0	0	0	514
4	0	0	0	0	513
5	0	0	0	0	515
6	0	0	0	0	513
7	0	0	0	0	515
8	0	0	0	0	513
9	0	0	0	0	516
10	0	0	0	0	518
11	0	0	0	0	525
12	0	0	0	0	531
13	0	0	0	0	524
14	0	0	0	0	520
15	0	0	0	0	530
0	0	0	0	0	524
1	0	0	0	0	520
2	0	0	0	0	510
3	0	0	0	0	497
4	0	0	0	0	492
5	0	0	0	0	494
6	0	0	0	0	492
7	0	0	0	0	497
8	0	0	0	0	499
9	0	0	0	0	499
10	0	0	0	0	503
11	0	0	0	0	508
12	0	0	0	0	506
13	0	0	0	0	509
14	0	0	0	0	511
15	0	0	0	0	499
0	0	0	0	0	575
1	0	0	0	0	809
2	0	0	0	0	1022
3	0	0	0	0	691
4	0	0	0	0	275
5	0	0	0	0	326
6	0	0	0	0	427
7	0	0	0	0	425
8	0	0	0	0	430
9	0	0	0	0	439
10	0	0	0	0	446
11	0	0	0	0	454
12	0	0	0	0	465
13	0	0	0	0	470
14	0	0	0	0	476
15	0	0	0	0	484
0	0	0	0	0	486
1	0	0	0	0	495
2	0	0	0	0	496
3	0	0	0	0	502
4	0	0	0	0	511
5	0	0	0	0	514
6	0	0	0	0	517
7	0	0	0	0	521
8	0	0	0	0	527
9	0	0	0	0	535
10	0	0	0	0	540
11	0	0	0	0	551
12	0	0	0	0	555
13	0	0	0	0	560
14	0	0	0	0	564
15	0	0	0	0	560
0	0	0	0	0	553
1	0	0	0	0	536
2	0	0	0	0	513
3	0	0	0	0	481
4	0	0	0	0	447
5	0	0	0	0	425
6	0	0	0	0	415
7	0	0	0	0	412
8	0	0	0	0	417
9	0	0	0	0	423
10	0	0	0	0	436
11	0	0	0	0	444
12	0	0	0	0	452
13	0	0	0	0	464
14	0	0	0	0	471
15	0	0	0	0	479
0	0	0	0	0	484
1	0	0	0	0	489
2	0	0	0	0	493
3	0	0	0	0	497
4	0	0	0	0	503
5	0	0	0	0	506
6	0	0	0	0	506
7	0	0	0	0	509
8	0	0	0	0	510
9	0	0	0	0	512
10	0	0	0	0	511
11	0	0	0	0	511
12	0	0	0	0	510
13	0	0	0	0	508
14	0	0	0	0	510
15	0	0	0	0	511
0	0	0	0	0	512
1	0	0	0	0	507
2	0	0	0	0	510
3	0	0	0	0	512
4	0	0	0	0	511
5	0	0	0	0	511
6	0	0	0	0	512
7	0	0	0	0	510
8	0	0	0	0	517
9	0	0	0	0	515
10	0	0	0	0	511
11	0	0	0	0	509
12	0	0	0	0	512
13	0	0	0	0	513
14	0	0	0	0	511
15	0	0	0	0	512
0	0	0	0	0	515
1	0	0	0	0	510
2	0	0	0	0	513
3	0	0	0	0	513
4	0	0	0	0	510
5	0	0	0	0	512
6	0	0	0	0	509
7	0	0	0	0	514
8	0	0	0	0	510
9	0	0	0	0	511
10	0	0	0	0	511
11	0	0	0	0	508
12	0	0	0	0	510
13	0	0	0	0	511
14	0	0	0	0	510
15	0	0	0	0	512
0	0	0	0	0	515
1	0	0	0	0	519
2	0	0	0	0	525
3	0	0	0	0	520
4	0	0	0	0	519
5	0	0	0	0	519
6	0	0	0	0	521
7	0	0	0	0	512
8	0	0	0	0	511
9	0	0	0	0	493
10	0	0	0	0	489
11	0	0	0	0	490
12	0	0	0	0	491
13	0	0	0	0	494
14	0	0	0	0	496
15	0	0	0	0	494
0	0	0	0	0	501
1	0	0	0	0	502
2	0	0	0	0	504
3	0	0	0	0	508
4	0	0	0	0	511
5	0	0	0	0	496
6	0	0	0	0	602
7	0	0	0	0	852
8	0	0	0	0	1022
9	0	0	0	0	601
10	0	0	0	0	276
11	0	0	0	0	329
12	0	0	0	0	420
13	0	0	0	0	424
14	0	0	0	0	431
15	0	0	0	0	437
0	0	0	0	0	444
1	0	0	0	0	452
2	0	0	0	0	463
3	0	0	0	0	471
4	0	0	0	0	477
5	0	0	0	0	482
6	0	0	0	0	487
7	0	0	0	0	494
8	0	0	0	0	498
9	0	0	0	0	501
10	0	0	0	0	510
11	0	0	0	0	514
12	0	0	0	0	518
13	0	0	0	0	520
14	0	0	0	0	525
15	0	0	0	0	534
0	0	0	0	0	540
1	0	0	0	0	549
2	0	0	0	0	556
3	0	0	0	0	558
4	0	0	0	0	561
5	0	0	0	0	555
6	0	0	0	0	555
7	0	0	0	0	539
8	0	0	0	0	516
9	0	0	0	0	486
10	0	0	0	0	453
11	0	0	0	0	434
12	0	0	0	0	427
13	0	0	0	0	425
14	0	0	0	0	424
15	0	0	0	0	431
0	0	0	0	0	441
1	0	0	0	0	450
2	0	0	0	0	460
3	0	0	0	0	469
4	0	0	0	0	478
5	0	0	0	0	486
6	0	0	0	0	490
7	0	0	0	0	496
8	0	0	0	0	499
9	0	0	0	0	506
10	0	0	0	0	512
11	0	0	0	0	508
12	0	0	0	0	511
13	0	0	0	0	514
14	0	0	0	0	512
15	0	0	0	0	515
0	0	0	0	0	512
1	0	0	0	0	511
2	0	0	0	0	513
3	0	0	0	0	515
4	0	0	0	0	515
5	0	0	0	0	515
6	0	0	0	0	518
7	0	0	0	0	514
8	0	0	0	0	514
9	0	0	0	0	516
10	0	0	0	0	515
11	0	0	0	0	518
12	0	0	0	0	517
13	0	0	0	0	515
14	0	0	0	0	517
15	0	0	0	0	520
0	0	0	0	0	516
1	0	0	0	0	517
2	0	0	0	0	518
3	0	0	0	0	516
4	0	0	0	0	514
5	0	0	0	0	516
6	0	0	0	0	517
7	0	0	0	0	515
8	0	0	0	0	518
9	0	0	0	0	516
10	0	0	0	0	515
11	0	0	0	0	520
12	0	0	0	0	522
13	0	0	0	0	530
14	0	0	0	0	528
15	0	0	0	0	517
0	0	0	0	0	532
1	0	0	0	0	526
2	0	0	0	0	524
3	0	0	0	0	518
4	0	0	0	0	504
5	0	0	0	0	492
6	0	0	0	0	490
7	0	0	0	0	497
8	0	0	0	0	497
9	0	0	0	0	499
10	0	0	0	0	504
11	0	0	0	0	504
12	0	0	0	0	511
13	0	0	0	0	512
14	0	0	0	0	512
15	0	0	0	0	516
0	0	0	0	0	512
1	0	0	0	0	533
2	0	0	0	0	687
3	0	0	0	0	960
4	0	0	0	0	985
5	0	0	0	0	423
6	0	0	0	0	269
7	0	0	0	0	389
8	0	0	0	0	430
9	0	0	0	0	432
10	0	0	0	0	437
11	0	0	0	0	447
12	0	0	0	0	454
13	0	0	0	0	460
14	0	0	0	0	470
15	0	0	0	0	473
0	0	0	0	0	484
1	0	0	0	0	488
2	0	0	0	0	496
3	0	0	0	0	500
4	0	0	0	0	505
5	0	0	0	0	511
6	0	0	0	0	514
7	0	0	0	0	516
8	0	0	0	0	523
9	0	0	0	0	527
10	0	0	0	0	536
11	0	0	0	0	537
12	0	0	0	0	549
13	0	0	0	0	555
14	0	0	0	0	558
15	0	0	0	0	561
0	0	0	0	0	562
1	0	0	0	0	557
2	0	0	0	0	544
3	0	0	0	0	524
4	0	0	0	0	492
5	0	0	0	0	464
6	0	0	0	0	438
7	0	0	0	0	423
8	0	0	0	0	415
9	0	0	0	0	416
10	0	0	0	0	420
11	0	0	0	0	432
12	0	0	0	0	441
13	0	0	0	0	448
14	0	0	0	0	456
15	0	0	0	0	467
0	0	0	0	0	476
1	0	0	0	0	485
2	0	0	0	0	491
3	0	0	0	0	496
4	0	0	0	0	495
5	0	0	0	0	501
6	0	0	0	0	505
7	0	0	0	0	507
8	0	0	0	0	511
9	0	0	0	0	510
10	0	0	0	0	510
11	0	0	0	0	510
12	0	0	0	0	508
13	0	0	0	0	512
14	0	0	0	0	512
15	0	0	0	0	507
0	0	0	0	0	512
1	0	0	0	0	512
2	0	0	0	0	511
3	0	0	0	0	513
4	0	0	0	0	513
5	0	0	0	0	515
6	0	0	0	0	510
7	0	0	0	0	515
8	0	0	0	0	516
9	0	0	0	0	513
10	0	0	0	0	512
11	0	0	0	0	511
12	0	0	0	0	515
13	0	0	0	0	513
14	0	0	0	0	512
15	0	0	0	0	514
0	0	0	0	0	512
1	0	0	0	0	515
2	0	0	0	0	515
3	0	0	0	0	514
4	0	0	0	0	514
5	0	0	0	0	515
6	0	0	0	0	517
7	0	0	0	0	513
8	0	0	0	0	511
9	0	0	0	0	511
10	0	0	0	0	512
11	0	0	0	0	513
12	0	0	0	0	510
13	0	0	0	0	508
14	0	0	0	0	512
15	0	0	0	0	512
0	0	0	0	0	512
1	0	0	0	0	510
2	0	0	0	0	511
3	0	0	0	0	512
4	0	0	0	0	508
5	0	0	0	0	509
6	0	0	0	0	509
7	0	0	0	0	510
8	0	0	0	0	510
9	0	0	0	0	506
10	0	0	0	0	512
11	0	0	0	0	521
12	0	0	0	0	524
13	0	0	0	0	527
14	0	0	0	0	516
15	0	0	0	0	527
0	0	0	0	0	519
1	0	0	0	0	515
2	0	0	0	0	512
3	0	0	0	0	500
4	0	0	0	0	491
5	0	0	0	0	487
6	0	0	0	0	488
7	0	0	0	0	492
8	0	0	0	0	491
9	0	0	0	0	499
10	0	0	0	0	499
11	0	0	0	0	501
12	0	0	0	0	503
13	0	0	0	0	504
14	0	0	0	0	507
15	0	0	0	0	511
0	0	0	0	0	498
1	0	0	0	0	575
2	0	0	0	0	805
3	0	0	0	0	1022
4	0	0	0	0	690
5	0	0	0	0	272
6	0	0	0	0	315
7	0	0	0	0	422
8	0	0	0	0	424
9	0	0	0	0	422
10	0	0	0	0	433
11	0	0	0	0	443
12	0	0	0	0	448
13	0	0	0	0	459
14	0	0	0	0	465
15	0	0	0	0	471
0	0	0	0	0	479
1	0	0	0	0	485
2	0	0	0	0	492
3	0	0	0	0	498
4	0	0	0	0	501
5	0	0	0	0	506
6	0	0	0	0	510
7	0	0	0	0	511
8	0	0	0	0	515
9	0	0	0	0	522
10	0	0	0	0	532
11	0	0	0	0	539
12	0	0	0	0	544
13	0	0	0	0	556
14	0	0	0	0	563
15	0	0	0	0	563
0	0	0	0	0	560
1	0	0	0	0	553
2	0	0	0	0	543
3	0	0	0	0	520
4	0	0	0	0	489
5	0	0	0	0	455
6	0	0	0	0	434
7	0	0	0	0	419
8	0	0	0	0	415
9	0	0	0	0	420
10	0	0	0	0	424
11	0	0	0	0	431
12	0	0	0	0	440
13	0	0	0	0	448
14	0	0	0	0	458
15	0	0	0	0	466
0	0	0	0	0	478
1	0	0	0	0	482
2	0	0	0	0	492
3	0	0	0	0	498
4	0	0	0	0	500
5	0	0	0	0	506
6	0	0	0	0	502
7	0	0	0	0	507
8	0	0	0	0	507
9	0	0	0	0	511
10	0	0	0	0	511
11	0	0	0	0	507
12	0	0	0	0	511
13	0	0	0	0	516
14	0	0	0	0	511
15	0	0	0	0	511
0	0	0	0	0	510
1	0	0	0	0	514
2	0	0	0	0	514
3	0	0	0	0	513
4	0	0	0	0	511
5	0	0	0	0	512
6	0	0	0	0	513
7	0	0	0	0	513
8	0	0	0	0	511
9	0	0	0	0	515
10	0	0	0	0	517
11	0	0	0	0	515
12	0	0	0	0	514
13	0	0	0	0	516
14	0	0	0	0	517
15	0	0	0	0	516
0	0	0	0	0	513
1	0	0	0	0	513
2	0	0	0	0	514
3	0	0	0	0	515
4	0	0	0	0	514
5	0	0	0	0	514
6	0	0	0	0	518
7	0	0	0	0	515
8	0	0	0	0	516
9	0	0	0	0	514
10	0	0	0	0	515
11	0	0	0	0	516
12	0	0	0	0	513
13	0	0	0	0	516
14	0	0	0	0	515
15	0	0	0	0	517
0	0	0	0	0	517
1	0	0	0	0	515
2	0	0	0	0	515
3	0	0	0	0	512
4	0	0	0	0	513
5	0	0	0	0	519
6	0	0	0	0	524
7	0	0	0	0	524
8	0	0	0	0	528
9	0	0	0	0	523
10	0	0	0	0	529
11	0	0	0	0	527
12	0	0	0	0	521
13	0	0	0	0	514
14	0	0	0	0	511
15	0	0	0	0	497
0	0	0	0	0	494
1	0	0	0	0	496
2	0	0	0	0	496
3	0	0	0	0	496
4	0	0	0	0	503
5	0	0	0	0	503
6	0	0	0	0	506
7	0	0	0	0	504
8	0	0	0	0	510
9	0	0	0	0	515
10	0	0	0	0	514
11	0	0	0	0	502
12	0	0	0	0	573
13	0	0	0	0	799
14	0	0	0	0	1022
15	0	0	0	0	707
0	0	0	0	0	301
1	0	0	0	0	307
2	0	0	0	0	424
3	0	0	0	0	430
4	0	0	0	0	427
5	0	0	0	0	441
6	0	0	0	0	449
7	0	0	0	0	459
8	0	0	0	0	465
9	0	0	0	0	472
10	0	0	0	0	479
11	0	0	0	0	487
12	0	0	0	0	492
13	0	0	0	0	497
14	0	0	0	0	502
15	0	0	0	0	506
0	0	0	0	0	508
1	0	0	0	0	515
2	0	0	0	0	523
3	0	0	0	0	524
4	0	0	0	0	531
5	0	0	0	0	536
6	0	0	0	0	542
7	0	0	0	0	548
8	0	0	0	0	553
9	0	0	0	0	560
10	0	0	0	0	560
11	0	0	0	0	558
12	0	0	0	0	555
13	0	0	0	0	543
14	0	0	0	0	524
15	0	0	0	0	493
0	0	0	0	0	461
1	0	0	0	0	439
2	0	0	0	0	423
3	0	0	0	0	416
4	0	0	0	0	419
5	0	0	0	0	427
6	0	0	0	0	436
7	0	0	0	0	443
8	0	0	0	0	455
9	0	0	0	0	465
10	0	0	0	0	469
11	0	0	0	0	481
12	0	0	0	0	486
13	0	0	0	0	491
14	0	0	0	0	497
15	0	0	0	0	499
0	0	0	0	0	504
1	0	0	0	0	505
2	0	0	0	0	510
3	0	0	0	0	509
4	0	0	0	0	511
5	0	0	0	0	510
6	0	0	0	0	508
7	0	0	0	0	511
8	0	0	0	0	511
9	0	0	0	0	508
10	0	0	0	0	512
11	0	0	0	0	510
12	0	0	0	0	512
13	0	0	0	0	512
14	0	0	0	0	511
15	0	0	0	0	512
0	0	0	0	0	513
1	0	0	0	0	515
2	0	0	0	0	510
3	0	0	0	0	511
4	0	0	0	0	514
5	0	0	0	0	512
6	0	0	0	0	514
7	0	0	0	0	515
8	0	0	0	0	512
9	0	0	0	0	515
10	0	0	0	0	514
11	0	0	0	0	513
12	0	0	0	0	514
13	0	0	0	0	512
14	0	0	0	0	512
15	0	0	0	0	511
0	0	0	0	0	511
1	0	0	0	0	514
2	0	0	0	0	516
3	0	0	0	0	514
4	0	0	0	0	513
5	0	0	0	0	512
6	0	0	0	0	512
7	0	0	0	0	510
8	0	0	0	0	510
9	0	0	0	0	512
10	0	0	0	0	512
11	0	0	0	0	512
12	0	0	0	0	508
13	0	0	0	0	511
14	0	0	0	0	513
15	0	0	0	0	512
0	0	0	0	0	510
1	0	0	0	0	513
2	0	0	0	0	512
3	0	0	0	0	512
4	0	0	0	0	512
5	0	0	0	0	516
6	0	0	0	0	520
7	0	0	0	0	526
8	0	0	0	0	523
9	0	0	0	0	514
10	0	0	0	0	526
11	0	0	0	0	517
12	0	0	0	0	515
13	0	0	0	0	510
14	0	0	0	0	499
15	0	0	0	0	485
0	0	0	0	0	489
1	0	0	0	0	491
2	0	0	0	0	491
3	0	0	0	0	494
4	0	0	0	0	496
5	0	0	0	0	497
6	0	0	0	0	504
7	0	0	0	0	504
8	0	0	0	0	509
9	0	0	0	0	507
10	0	0	0	0	504
11	0	0	0	0	528
12	0	0	0	0	683
13	0	0	0	0	963
14	0	0	0	0	963
15	0	0	0	0	391
0	0	0	0	0	264
1	0	0	0	0	397
2	0	0	0	0	424
3	0	0	0	0	421
4	0	0	0	0	428
5	0	0	0	0	440
6	0	0	0	0	446
7	0	0	0	0	454
8	0	0	0	0	464
9	0	0	0	0	470
10	0	0	0	0	476
11	0	0	0	0	485
12	0	0	0	0	488
13	0	0	0	0	492
14	0	0	0	0	497
15	0	0	0	0	504
0	0	0	0	0	507
1	0	0	0	0	513
2	0	0	0	0	517
3	0	0	0	0	520
4	0	0	0	0	531
5	0	0	0	0	536
6	0	0	0	0	542
7	0	0	0	0	549
8	0	0	0	0	555
9	0	0	0	0	566
10	0	0	0	0	559
11	0	0	0	0	557
12	0	0	0	0	551
13	0	0	0	0	531
14	0	0	0	0	507
15	0	0	0	0	472
0	0	0	0	0	442
1	0	0	0	0	419
2	0	0	0	0	409
3	0	0	0	0	411
4	0	0	0	0	418
5	0	0	0	0	427
6	0	0	0	0	432
7	0	0	0	0	442
8	0	0	0	0	451
9	0	0	0	0	460
10	0	0	0	0	472
11	0	0	0	0	476
12	0	0	0	0	484
13	0	0	0	0	491
14	0	0	0	0	496
15	0	0	0	0	499
0	0	0	0	0	501
1	0	0	0	0	502
2	0	0	0	0	508
3	0	0	0	0	508
4	0	0	0	0	504
5	0	0	0	0	509
6	0	0	0	0	511
7	0	0	0	0	509
8	0	0	0	0	508
9	0	0	0	0	508
10	0	0	0	0	512
11	0	0	0	0	509
12	0	0	0	0	515
13	0	0	0	0	512
14	0	0	0	0	508
15	0	0	0	0	512
0	0	0	0	0	512
1	0	0	0	0	515
2	0	0	0	0	514
3	0	0	0	0	513
4	0	0	0	0	513
5	0	0	0	0	512
6	0	0	0	0	513
7	0	0	0	0	513
8	0	0	0	0	516
9	0	0	0	0	515
10	0	0	0	0	515
11	0	0	0	0	513
12	0	0	0	0	513
13	0	0	0	0	515
14	0	0	0	0	515
15	0	0	0	0	512
0	0	0	0	0	513
1	0	0	0	0	515
2	0	0	0	0	514
3	0	0	0	0	515
4	0	0	0	0	515
5	0	0	0	0	519
6	0	0	0	0	516
7	0	0	0	0	516
8	0	0	0	0	518
9	0	0	0	0	516
10	0	0	0	0	515
11	0	0	0	0	514
12	0	0	0	0	513
13	0	0	0	0	513
14	0	0	0	0	521
15	0	0	0	0	527
0	0	0	0	0	531
1	0	0	0	0	519
2	0	0	0	0	528
3	0	0	0	0	527
4	0	0	0	0	524
5	0	0	0	0	517
6	0	0	0	0	506
7	0	0	0	0	494
8	0	0	0	0	494
9	0	0	0	0	496
10	0	0	0	0	498
11	0	0	0	0	500
12	0	0	0	0	504
13	0	0	0	0	504
14	0	0	0	0	508
15	0	0	0	0	511
0	0	0	0	0	514
1	0	0	0	0	516
2	0	0	0	0	511
3	0	0	0	0	536
4	0	0	0	0	704
5	0	0	0	0	969
6	0	0	0	0	937
7	0	0	0	0	406
8	0	0	0	0	277
9	0	0	0	0	393
10	0	0	0	0	432
11	0	0	0	0	433
12	0	0	0	0	438
13	0	0	0	0	451
14	0	0	0	0	456
15	0	0	0	0	463
0	0	0	0	0	469
1	0	0	0	0	476
2	0	0	0	0	485
3	0	0	0	0	490
4	0	0	0	0	496
5	0	0	0	0	496
6	0	0	0	0	502
7	0	0	0	0	510
8	0	0	0	0	515
9	0	0	0	0	516
10	0	0	0	0	522
11	0	0	0	0	528
12	0	0	0	0	534
13	0	0	0	0	536
14	0	0	0	0	545
15	0	0	0	0	553
0	0	0	0	0	556
1	0	0	0	0	563
2	0	0	0	0	563
3	0	0	0	0	558
4	0	0	0	0	549
5	0	0	0	0	530
6	0	0	0	0	507
7	0	0	0	0	475
8	0	0	0	0	447
9	0	0	0	0	431
10	0	0	0	0	420
11	0	0	0	0	420
12	0	0	0	0	425
13	0	0	0	0	432
14	0	0	0	0	441
15	0	0	0	0	450
0	0	0	0	0	460
1	0	0	0	0	467
2	0	0	0	0	476
3	0	0	0	0	483
4	0	0	0	0	490
5	0	0	0	0	496
6	0	0	0	0	498
7	0	0	0	0	504
8	0	0	0	0	508
9	0	0	0	0	508
10	0	0	0	0	507
11	0	0	0	0	505
12	0	0	0	0	510
13	0	0	0	0	510
14	0	0	0	0	507
15	0	0	0	0	511
0	0	0	0	0	508
1	0	0	0	0	508
2	0	0	0	0	512
3	0	0	0	0	512
4	0	0	0	0	512
5	0	0	0	0	512
6	0	0	0	0	513
7	0	0	0	0	512
8	0	0	0	0	513
9	0	0	0	0	513
10	0	0	0	0	514
11	0	0	0	0	512
12	0	0	0	0	517
13	0	0	0	0	517
14	0	0	0	0	514
15	0	0	0	0	516
0	0	0	0	0	513
1	0	0	0	0	515
2	0	0	0	0	512
3	0	0	0	0	516
4	0	0	0	0	514
5	0	0	0	0	515
6	0	0	0	0	515
7	0	0	0	0	511
8	0	0	0	0	513
9	0	0	0	0	512
10	0	0	0	0	512
11	0	0	0	0	513
12	0	0	0	0	513
13	0	0	0	0	511
14	0	0	0	0	510
15	0	0	0	0	512
0	0	0	0	0	510
1	0	0	0	0	511
2	0	0	0	0	512
3	0	0	0	0	511
4	0	0	0	0	513
5	0	0	0	0	509
6	0	0	0	0	510
7	0	0	0	0	507
8	0	0	0	0	508
9	0	0	0	0	511
10	0	0	0	0	510
11	0	0	0	0	504
12	0	0	0	0	513
13	0	0	0	0	518
14	0	0	0	0	524
15	0	0	0	0	525
0	0	0	0	0	514
1	0	0	0	0	528
2	0	0	0	0	518
3	0	0	0	0	513
4	0	0	0	0	510
5	0	0	0	0	496
6	0	0	0	0	489
7	0	0	0	0	484
8	0	0	0	0	489
9	0	0	0	0	492
10	0	0	0	0	494
11	0	0	0	0	495
12	0	0	0	0	496
13	0	0	0	0	497
14	0	0	0	0	504
15	0	0	0	0	508
0	0	0	0	0	511
1	0	0	0	0	499
2	0	0	0	0	535
3	0	0	0	0	714
4	0	0	0	0	994
5	0	0	0	0	885
6	0	0	0	0	348
7	0	0	0	0	280
8	0	0	0	0	408
9	0	0	0	0	422
10	0	0	0	0	425
11	0	0	0	0	432
12	0	0	0	0	438
13	0	0	0	0	446
14	0	0	0	0	453
15	0	0	0	0	461
0	0	0	0	0	473
1	0	0	0	0	479
2	0	0	0	0	484
3	0	0	0	0	487
4	0	0	0	0	493
5	0	0	0	0	496
6	0	0	0	0	504
7	0	0	0	0	506
8	0	0	0	0	511
9	0	0	0	0	519
10	0	0	0	0	522
11	0	0	0	0	528
12	0	0	0	0	539
13	0	0	0	0	541
14	0	0	0	0	551
15	0	0	0	0	553
0	0	0	0	0	559
1	0	0	0	0	561
2	0	0	0	0	560
3	0	0	0	0	549
4	0	0	0	0	529
5	0	0	0	0	503
6	0	0	0	0	473
7	0	0	0	0	444
8	0	0	0	0	423
9	0	0	0	0	412
10	0	0	0	0	410
11	0	0	0	0	418
12	0	0	0	0	424
13	0	0	0	0	435
14	0	0	0	0	446
15	0	0	0	0	455
0	0	0	0	0	460
1	0	0	0	0	472
2	0	0	0	0	480
3	0	0	0	0	483
4	0	0	0	0	487
5	0	0	0	0	495
6	0	0	0	0	498
7	0	0	0	0	500
8	0	0	0	0	504
9	0	0	0	0	503
10	0	0	0	0	508
11	0	0	0	0	508
12	0	0	0	0	507
13	0	0	0	0	509
14	0	0	0	0	511
15	0	0	0	0	509
0	0	0	0	0	511
1	0	0	0	0	509
2	0	0	0	0	508
3	0	0	0	0	510
4	0	0	0	0	511
5	0	0	0	0	512
6	0	0	0	0	513
7	0	0	0	0	513
8	0	0	0	0	511
9	0	0	0	0	515
10	0	0	0	0	511
11	0	0	0	0	514
12	0	0	0	0	515
13	0	0	0	0	513
14	0	0	0	0	516
15	0	0	0	0	516
0	0	0	0	0	513
1	0	0	0	0	517
2	0	0	0	0	514
3	0	0	0	0	512
4	0	0	0	0	511
5	0	0	0	0	515
6	0	0	0	0	514
7	0	0	0	0	514
8	0	0	0	0	516
9	0	0	0	0	512
10	0	0	0	0	515
11	0	0	0	0	511
12	0	0	0	0	511
13	0	0	0	0	512
14	0	0	0	0	513
15	0	0	0	0	514
0	0	0	0	0	511
1	0	0	0	0	512
2	0	0	0	0	516
3	0	0	0	0	514
4	0	0	0	0	515
5	0	0	0	0	516
6	0	0	0	0	519
7	0	0	0	0	523
8	0	0	0	0	526
9	0	0	0	0	518
10	0	0	0	0	525
11	0	0	0	0	525
12	0	0	0	0	522
13	0	0	0	0	514
14	0	0	0	0	501
15	0	0	0	0	494
0	0	0	0	0	489
1	0	0	0	0	495
2	0	0	0	0	492
3	0	0	0	0	499
4	0	0	0	0	505
5	0	0	0	0	503
6	0	0	0	0	504
7	0	0	0	0	509
8	0	0	0	0	513
9	0	0	0	0	516
10	0	0	0	0	504
11	0	0	0	0	547
12	0	0	0	0	737
13	0	0	0	0	1001
14	0	0	0	0	841
15	0	0	0	0	374
0	0	0	0	0	288
1	0	0	0	0	400
2	0	0	0	0	430
3	0	0	0	0	434
4	0	0	0	0	439
5	0	0	0	0	449
6	0	0	0	0	458
7	0	0	0	0	468
8	0	0	0	0	471
9	0	0	0	0	478
10	0	0	0	0	488
11	0	0	0	0	491
12	0	0	0	0	496
13	0	0	0	0	500
14	0	0	0	0	502
15	0	0	0	0	512
0	0	0	0	0	513
1	0	0	0	0	520
2	0	0	0	0	522
3	0	0	0	0	529
4	0	0	0	0	538
5	0	0	0	0	542
6	0	0	0	0	550
7	0	0	0	0	554
8	0	0	0	0	555
9	0	0	0	0	560
10	0	0	0	0	560
11	0	0	0	0	560
12	0	0	0	0	549
13	0	0	0	0	528
14	0	0	0	0	505
15	0	0	0	0	477
0	0	0	0	0	452
1	0	0	0	0	434
2	0	0	0	0	422
3	0	0	0	0	426
4	0	0	0	0	425
5	0	0	0	0	432
6	0	0	0	0	444
7	0	0	0	0	451
8	0	0	0	0	461
9	0	0	0	0	468
10	0	0	0	0	478
11	0	0	0	0	486
12	0	0	0	0	487
13	0	0	0	0	496
14	0	0	0	0	499
15	0	0	0	0	500
0	0	0	0	0	500
1	0	0	0	0	505
2	0	0	0	0	510
3	0	0	0	0	508
4	0	0	0	0	507
5	0	0	0	0	508
6	0	0	0	0	511
7	0	0	0	0	511
8	0	0	0	0	510
9	0	0	0	0	509
10	0	0	0	0	509
11	0	0	0	0	512
12	0	0	0	0	515
13	0	0	0	0	512
14	0	0	0	0	510
15	0	0	0	0	512
0	0	0	0	0	509
1	0	0	0	0	513
2	0	0	0	0	514
3	0	0	0	0	514
4	0	0	0	0	512
5	0	0	0	0	512
6	0	0	0	0	515
7	0	0	0	0	514
8	0	0	0	0	514
9	0	0	0	0	513
10	0	0	0	0	512
11	0	0	0	0	512
12	0	0	0	0	511
13	0	0	0	0	510
14	0	0	0	0	516
15	0	0	0	0	515
0	0	0	0	0	515
1	0	0	0	0	514
2	0	0	0	0	515
3	0	0	0	0	512
4	0	0	0	0	512
5	0	0	0	0	513
6	0	0	0	0	510
7	0	0	0	0	512
8	0	0	0	0	511
9	0	0	0	0	512
10	0	0	0	0	513
11	0	0	0	0	509
12	0	0	0	0	511
13	0	0	0	0	509
14	0	0	0	0	509
15	0	0	0	0	509
0	0	0	0	0	510
1	0	0	0	0	513
2	0	0	0	0	518
3	0	0	0	0	521
4	0	0	0	0	527
5	0	0	0	0	527
6	0	0	0	0	521
7	0	0	0	0	531
8	0	0	0	0	522
9	0	0	0	0	515
10	0	0	0	0	508
11	0	0	0	0	501
12	0	0	0	0	494
13	0	0	0	0	491
14	0	0	0	0	497
15	0	0	0	0	493
0	0	0	0	0	494
1	0	0	0	0	499
2	0	0	0	0	503
3	0	0	0	0	505
4	0	0	0	0	501
5	0	0	0	0	510
6	0	0	0	0	513
7	0	0	0	0	501
8	0	0	0	0	544
9	0	0	0	0	733
10	0	0	0	0	1011
11	0	0	0	0	843
12	0	0	0	0	325
13	0	0	0	0	292
14	0	0	0	0	413
15	0	0	0	0	427
0	0	0	0	0	428
1	0	0	0	0	432
2	0	0	0	0	444
3	0	0	0	0	449
4	0	0	0	0	459
5	0	0	0	0	467
6	0	0	0	0	472
7	0	0	0	0	481
8	0	0	0	0	486
9	0	0	0	0	489
10	0	0	0	0	495
11	0	0	0	0	499
12	0	0	0	0	506
13	0	0	0	0	510
14	0	0	0	0	514
15	0	0	0	0	521
0	0	0	0	0	523
1	0	0	0	0	531
2	0	0	0	0	536
3	0	0	0	0	543
4	0	0	0	0	551
5	0	0	0	0	555
6	0	0	0	0	561
7	0	0	0	0	561
8	0	0	0	0	556
9	0	0	0	0	547
10	0	0	0	0	530
11	0	0	0	0	505
12	0	0	0	0	473
13	0	0	0	0	443
14	0	0	0	0	427
15	0	0	0	0	414
0	0	0	0	0	416
1	0	0	0	0	418
2	0	0	0	0	425
3	0	0	0	0	434
4	0	0	0	0	441
5	0	0	0	0	455
6	0	0	0	0	463
7	0	0	0	0	469
8	0	0	0	0	473
9	0	0	0	0	483
10	0	0	0	0	488
11	0	0	0	0	493
12	0	0	0	0	499
13	0	0	0	0	503
14	0	0	0	0	500
15	0	0	0	0	504
0	0	0	0	0	504
1	0	0	0	0	504
2	0	0	0	0	504
3	0	0	0	0	504
4	0	0	0	0	508
5	0	0	0	0	504
6	0	0	0	0	509
7	0	0	0	0	509
8	0	0	0	0	505
9	0	0	0	0	508
10	0	0	0	0	512
11	0	0	0	0	510
12	0	0	0	0	510
13	0	0	0	0	513
14	0	0	0	0	515
15	0	0	0	0	510
0	0	0	0	0	511
1	0	0	0	0	510
2	0	0	0	0	513
3	0	0	0	0	512
4	0	0	0	0	513
5	0	0	0	0	515
6	0	0	0	0	513
7	0	0	0	0	511
8	0	0	0	0	512
9	0	0	0	0	513
10	0	0	0	0	510
11	0	0	0	0	510
12	0	0	0	0	510
13	0	0	0	0	512
14	0	0	0	0	511
15	0	0	0	0	511
0	0	0	0	0	511
1	0	0	0	0	513
2	0	0	0	0	511
3	0	0	0	0	508
4	0	0	0	0	514
5	0	0	0	0	514
6	0	0	0	0	511
7	0	0	0	0	512
8	0	0	0	0	508
9	0	0	0	0	509
10	0	0	0	0	506
11	0	0	0	0	512
12	0	0	0	0	515
13	0	0	0	0	510
14	0	0	0	0	511
15	0	0	0	0	511
0	0	0	0	0	509
1	0	0	0	0	513
2	0	0	0	0	512
3	0	0	0	0	518
4	0	0	0	0	524
5	0	0	0	0	516
6	0	0	0	0	520
7	0	0	0	0	525
8	0	0	0	0	523
9	0	0	0	0	518
10	0	0	0	0	508
11	0	0	0	0	497
12	0	0	0	0	491
13	0	0	0	0	491
14	0	0	0	0	494
15	0	0	0	0	493
0	0	0	0	0	499
1	0	0	0	0	499
2	0	0	0	0	501
3	0	0	0	0	504
4	0	0	0	0	508
5	0	0	0	0	511
6	0	0	0	0	509
7	0	0	0	0	502
8	0	0	0	0	627
9	0	0	0	0	883
10	0	0	0	0	1022
11	0	0	0	0	543
12	0	0	0	0	280
13	0	0	0	0	345
14	0	0	0	0	423
15	0	0	0	0	430
0	0	0	0	0	432
1	0	0	0	0	440
2	0	0	0	0	452
3	0	0	0	0	460
4	0	0	0	0	469
5	0	0	0	0	476
6	0	0	0	0	483
7	0	0	0	0	489
8	0	0	0	0	494
9	0	0	0	0	502
10	0	0	0	0	502
11	0	0	0	0	510
12	0	0	0	0	514
13	0	0	0	0	512
14	0	0	0	0	520
15	0	0	0	0	529
0	0	0	0	0	533
1	0	0	0	0	541
2	0	0	0	0	542
3	0	0	0	0	550
4	0	0	0	0	556
5	0	0	0	0	560
6	0	0	0	0	563
7	0	0	0	0	556
8	0	0	0	0	553
9	0	0	0	0	543
10	0	0	0	0	526
11	0	0	0	0	501
12	0	0	0	0	466
13	0	0	0	0	445
14	0	0	0	0	430
15	0	0	0	0	427
0	0	0	0	0	428
1	0	0	0	0	435
2	0	0	0	0	442
3	0	0	0	0	451
4	0	0	0	0	460
5	0	0	0	0	470
6	0	0	0	0	480
7	0	0	0	0	486
8	0	0	0	0	489
9	0	0	0	0	494
10	0	0	0	0	501
11	0	0	0	0	502
12	0	0	0	0	505
13	0	0	0	0	508
14	0	0	0	0	510
15	0	0	0	0	510
0	0	0	0	0	511
1	0	0	0	0	512
2	0	0	0	0	512
3	0	0	0	0	512
4	0	0	0	0	512
5	0	0	0	0	511
6	0	0	0	0	514
7	0	0	0	0	511
8	0	0	0	0	512
9	0	0	0	0	515
10	0	0	0	0	514
11	0	0	0	0	514
12	0	0	0	0	516
13	0	0	0	0	516
14	0	0	0	0	516
15	0	0	0	0	512
0	0	0	0	0	515
1	0	0	0	0	519
2	0	0	0	0	519
3	0	0	0	0	518
4	0	0	0	0	515
5	0	0	0	0	517
6	0	0	0	0	515
7	0	0	0	0	515
8	0	0	0	0	518
9	0	0	0	0	514
10	0	0	0	0	514
11	0	0	0	0	514
12	0	0	0	0	514
13	0	0	0	0	519
14	0	0	0	0	515
15	0	0	0	0	517
0	0	0	0	0	516
1	0	0	0	0	513
2	0	0	0	0	516
3	0	0	0	0	508
4	0	0	0	0	515
5	0	0	0	0	514
6	0	0	0	0	511
7	0	0	0	0	511
8	0	0	0	0	510
9	0	0	0	0	524
10	0	0	0	0	528
11	0	0	0	0	529
12	0	0	0	0	520
13	0	0	0	0	524
14	0	0	0	0	523
15	0	0	0	0	519
0	0	0	0	0	511
1	0	0	0	0	504
2	0	0	0	0	492
3	0	0	0	0	490
4	0	0	0	0	494
5	0	0	0	0	497
6	0	0	0	0	498
7	0	0	0	0	497
8	0	0	0	0	501
9	0	0	0	0	502
10	0	0	0	0	507
11	0	0	0	0	507
12	0	0	0	0	512
13	0	0	0	0	506
14	0	0	0	0	530
15	0	0	0	0	696
0	0	0	0	0	977
1	0	0	0	0	936
2	0	0	0	0	375
3	0	0	0	0	272
4	0	0	0	0	404
5	0	0	0	0	429
6	0	0	0	0	426
7	0	0	0	0	433
8	0	0	0	0	442
9	0	0	0	0	448
10	0	0	0	0	460
11	0	0	0	0	467
12	0	0	0	0	472
13	0	0	0	0	483
14	0	0	0	0	490
15	0	0	0	0	499
0	0	0	0	0	502
1	0	0	0	0	507
2	0	0	0	0	510
3	0	0	0	0	513
4	0	0	0	0	519
5	0	0	0	0	522
6	0	0	0	0	527
7	0	0	0	0	531
8	0	0	0	0	538
9	0	0	0	0	542
10	0	0	0	0	552
11	0	0	0	0	560
12	0	0	0	0	561
13	0	0	0	0	564
14	0	0	0	0	560
15	0	0	0	0	555
0	0	0	0	0	540
1	0	0	0	0	510
2	0	0	0	0	472
3	0	0	0	0	444
4	0	0	0	0	425
5	0	0	0	0	413
6	0	0	0	0	408
7	0	0	0	0	414
8	0	0	0	0	424
9	0	0	0	0	429
10	0	0	0	0	440
11	0	0	0	0	454
12	0	0	0	0	458
13	0	0	0	0	470
14	0	0	0	0	476
15	0	0	0	0	483
0	0	0	0	0	487
1	0	0	0	0	495
2	0	0	0	0	497
3	0	0	0	0	496
4	0	0	0	0	499
5	0	0	0	0	504
6	0	0	0	0	504
7	0	0	0	0	505
8	0	0	0	0	504
9	0	0	0	0	506
10	0	0	0	0	504
11	0	0	0	0	504
12	0	0	0	0	512
13	0	0	0	0	508
14	0	0	0	0	506
15	0	0	0	0	509
0	0	0	0	0	505
1	0	0	0	0	509
2	0	0	0	0	509
3	0	0	0	0	512
4	0	0	0	0	512
5	0	0	0	0	508
6	0	0	0	0	509
7	0	0	0	0	511
8	0	0	0	0	513
9	0	0	0	0	512
10	0	0	0	0	510
11	0	0	0	0	512
12	0	0	0	0	512
13	0	0	0	0	510
14	0	0	0	0	508
15	0	0	0	0	509
0	0	0	0	0	512
1	0	0	0	0	508
2	0	0	0	0	512
3	0	0	0	0	507
4	0	0	0	0	512
5	0	0	0	0	514
6	0	0	0	0	511
7	0	0	0	0	511
8	0	0	0	0	511
9	0	0	0	0	507
10	0	0	0	0	510
11	0	0	0	0	508
12	0	0	0	0	512
13	0	0	0	0	520
14	0	0	0	0	517
15	0	0	0	0	529
0	0	0	0	0	516
1	0	0	0	0	519
2	0	0	0	0	521
3	0	0	0	0	515
4	0	0	0	0	513
5	0	0	0	0	508
6	0	0	0	0	493
7	0	0	0	0	487
8	0	0	0	0	497
9	0	0	0	0	494
10	0	0	0	0	495
11	0	0	0	0	499
12	0	0	0	0	499
13	0	0	0	0	500
14	0	0	0	0	505
15	0	0	0	0	507
0	0	0	0	0	508
1	0	0	0	0	506
2	0	0	0	0	528
3	0	0	0	0	687
4	0	0	0	0	947
5	0	0	0	0	957
6	0	0	0	0	441
7	0	0	0	0	272
8	0	0	0	0	379
9	0	0	0	0	427
10	0	0	0	0	430
11	0	0	0	0	439
12	0	0	0	0	444
13	0	0	0	0	454
14	0	0	0	0	460
15	0	0	0	0	470
0	0	0	0	0	476
1	0	0	0	0	480
2	0	0	0	0	489
3	0	0	0	0	495
4	0	0	0	0	499
5	0	0	0	0	503
6	0	0	0	0	503
7	0	0	0	0	513
8	0	0	0	0	512
9	0	0	0	0	520
10	0	0	0	0	527
11	0	0	0	0	532
12	0	0	0	0	540
13	0	0	0	0	543
14	0	0	0	0	551
15	0	0	0	0	560
0	0	0	0	0	561
1	0	0	0	0	562
2	0	0	0	0	558
3	0	0	0	0	554
4	0	0	0	0	539
5	0	0	0	0	513
6	0	0	0	0	489
7	0	0	0	0	457
8	0	0	0	0	437
9	0	0	0	0	427
10	0	0	0	0	426
11	0	0	0	0	428
12	0	0	0	0	433
13	0	0	0	0	442
14	0	0	0	0	453
15	0	0	0	0	460
0	0	0	0	0	470
1	0	0	0	0	478
2	0	0	0	0	489
3	0	0	0	0	496
4	0	0	0	0	498
5	0	0	0	0	504
6	0	0	0	0	504
7	0	0	0	0	508
8	0	0	0	0	510
9	0	0	0	0	511
10	0	0	0	0	511
11	0	0	0	0	512
12	0	0	0	0	513
13	0	0	0	0	512
14	0	0	0	0	511
15	0	0	0	0	513
0	0	0	0	0	514
1	0	0	0	0	513
2	0	0	0	0	511
3	0	0	0	0	512
4	0	0	0	0	519
5	0	0	0	0	516
6	0	0	0	0	516
7	0	0	0	0	514
8	0	0	0	0	513
9	0	0	0	0	517
10	0	0	0	0	513
11	0	0	0	0	512
12	0	0	0	0	516
13	0	0	0	0	516
14	0	0	0	0	518
15	0	0	0	0	516
0	0	0	0	0	515
1	0	0	0	0	514
2	0	0	0	0	515
3	0	0	0	0	518
4	0	0	0	0	517
5	0	0	0	0	515
6	0	0	0	0	512
7	0	0	0	0	514
8	0	0	0	0	521
9	0	0	0	0	518
10	0	0	0	0	517
11	0	0	0	0	525
12	0	0	0	0	524
13	0	0	0	0	532
14	0	0	0	0	522
15	0	0	0	0	527
0	0	0	0	0	525
1	0	0	0	0	523
2	0	0	0	0	514
3	0	0	0	0	508
4	0	0	0	0	497
5	0	0	0	0	494
6	0	0	0	0	497
7	0	0	0	0	497
8	0	0	0	0	496
9	0	0	0	0	498
10	0	0	0	0	501
11	0	0	0	0	502
12	0	0	0	0	509
13	0	0	0	0	509
14	0	0	0	0	511
15	0	0	0	0	512
0	0	0	0	0	513
1	0	0	0	0	651
2	0	0	0	0	922
3	0	0	0	0	1022
4	0	0	0	0	472
5	0	0	0	0	255
6	0	0	0	0	385
7	0	0	0	0	428
8	0	0	0	0	425
9	0	0	0	0	433
10	0	0	0	0	440
11	0	0	0	0	448
12	0	0	0	0	457
13	0	0	0	0	465
14	0	0	0	0	473
15	0	0	0	0	477
0	0	0	0	0	487
1	0	0	0	0	492
2	0	0	0	0	494
3	0	0	0	0	500
4	0	0	0	0	504
5	0	0	0	0	509
6	0	0	0	0	514
7	0	0	0	0	517
8	0	0	0	0	526
9	0	0	0	0	530
10	0	0	0	0	535
11	0	0	0	0	541
12	0	0	0	0	552
13	0	0	0	0	556
14	0	0	0	0	563
15	0	0	0	0	564
0	0	0	0	0	561
1	0	0	0	0	553
2	0	0	0	0	536
3	0	0	0	0	506
4	0	0	0	0	476
5	0	0	0	0	444
6	0	0	0	0	424
7	0	0	0	0	417
8	0	0	0	0	411
9	0	0	0	0	416
10	0	0	0	0	424
11	0	0	0	0	431
12	0	0	0	0	444
13	0	0	0	0	451
14	0	0	0	0	461
15	0	0	0	0	469
0	0	0	0	0	476
1	0	0	0	0	487
2	0	0	0	0	489
3	0	0	0	0	490
4	0	0	0	0	496
5	0	0	0	0	500
6	0	0	0	0	507
7	0	0	0	0	505
8	0	0	0	0	507
9	0	0	0	0	504
10	0	0	0	0	509
11	0	0	0	0	505
12	0	0	0	0	505
13	0	0	0	0	505
14	0	0	0	0	505
15	0	0	0	0	507
0	0	0	0	0	508
1	0	0	0	0	505
2	0	0	0	0	509
3	0	0	0	0	507
4	0	0	0	0	512
5	0	0	0	0	513
6	0	0	0	0	514
7	0	0	0	0	511
8	0	0	0	0	511
9	0	0	0	0	511
10	0	0	0	0	512
11	0	0	0	0	508
12	0	0	0	0	515
13	0	0	0	0	512
14	0	0	0	0	512
15	0	0	0	0	514
0	0	0	0	0	509
1	0	0	0	0	511
2	0	0	0	0	513
3	0	0	0	0	513
4	0	0	0	0	512
5	0	0	0	0	511
6	0	0	0	0	513
7	0	0	0	0	512
8	0	0	0	0	512
9	0	0	0	0	512
10	0	0	0	0	515
11	0	0	0	0	519
12	0	0	0	0	523
13	0	0	0	0	518
14	0	0	0	0	522
15	0	0	0	0	527
0	0	0	0	0	521
1	0	0	0	0	521
2	0	0	0	0	510
3	0	0	0	0	497
4	0	0	0	0	487
5	0	0	0	0	492
6	0	0	0	0	495
7	0	0	0	0	496
8	0	0	0	0	498
9	0	0	0	0	496
10	0	0	0	0	500
11	0	0	0	0	505
12	0	0	0	0	507
13	0	0	0	0	512
14	0	0	0	0	513
15	0	0	0	0	499
0	0	0	0	0	575
1	0	0	0	0	803
2	0	0	0	0	1022
3	0	0	0	0	676
4	0	0	0	0	312
5	0	0	0	0	304
6	0	0	0	0	414
7	0	0	0	0	426
8	0	0	0	0	425
9	0	0	0	0	437
10	0	0	0	0	449
11	0	0	0	0	453
12	0	0	0	0	464
13	0	0	0	0	470
14	0	0	0	0	479
15	0	0	0	0	484
0	0	0	0	0	491
1	0	0	0	0	495
2	0	0	0	0	496
3	0	0	0	0	504
4	0	0	0	0	511
5	0	0	0	0	512
6	0	0	0	0	518
7	0	0	0	0	524
8	0	0	0	0	530
9	0	0	0	0	536
10	0	0	0	0	542
11	0	0	0	0	547
12	0	0	0	0	553
13	0	0	0	0	563
14	0	0	0	0	561
15	0	0	0	0	562
0	0	0	0	0	559
1	0	0	0	0	547
2	0	0	0	0	526
3	0	0	0	0	493
4	0	0	0	0	464
5	0	0	0	0	440
6	0	0	0	0	426
7	0	0	0	0	423
8	0	0	0	0	422
9	0	0	0	0	430
10	0	0	0	0	442
11	0	0	0	0	447
12	0	0	0	0	459
13	0	0	0	0	464
14	0	0	0	0	473
15	0	0	0	0	483
0	0	0	0	0	488
1	0	0	0	0	496
2	0	0	0	0	501
3	0	0	0	0	501
4	0	0	0	0	510
5	0	0	0	0	512
6	0	0	0	0	513
7	0	0	0	0	514
8	0	0	0	0	515
9	0	0	0	0	516
10	0	0	0	0	515
11	0	0	0	0	515
12	0	0	0	0	512
13	0	0	0	0	509
14	0	0	0	0	515
15	0	0	0	0	516
0	0	0	0	0	518
1	0	0	0	0	516
2	0	0	0	0	514
3	0	0	0	0	518
4	0	0	0	0	515
5	0	0	0	0	521
6	0	0	0	0	519
7	0	0	0	0	517
8	0	0	0	0	518
9	0	0	0	0	515
10	0	0	0	0	519
11	0	0	0	0	521
12	0	0	0	0	515
13	0	0	0	0	518
14	0	0	0	0	519
15	0	0	0	0	523
0	0	0	0	0	521
1	0	0	0	0	523
2	0	0	0	0	529
3	0	0	0	0	532
4	0	0	0	0	535
5	0	0	0	0	523
6	0	0	0	0	528
7	0	0	0	0	531
8	0	0	0	0	524
9	0	0	0	0	519
10	0	0	0	0	511
11	0	0	0	0	500
12	0	0	0	0	497
13	0	0	0	0	499
14	0	0	0	0	500
15	0	0	0	0	500
0	0	0	0	0	502
1	0	0	0	0	506
2	0	0	0	0	505
3	0	0	0	0	508
4	0	0	0	0	512
5	0	0	0	0	514
6	0	0	0	0	514
7	0	0	0	0	502
8	0	0	0	0	592
9	0	0	0	0	839
10	0	0	0	0	1022
11	0	0	0	0	643
12	0	0	0	0	272
13	0	0	0	0	330
14	0	0	0	0	426
15	0	0	0	0	427
0	0	0	0	0	432
1	0	0	0	0	440
2	0	0	0	0	446
3	0	0	0	0	453
4	0	0	0	0	465
5	0	0	0	0	471
6	0	0	0	0	478
7	0	0	0	0	485
8	0	0	0	0	487
9	0	0	0	0	492
10	0	0	0	0	501
11	0	0	0	0	499
12	0	0	0	0	507
13	0	0	0	0	512
14	0	0	0	0	517
15	0	0	0	0	525
0	0	0	0	0	527
1	0	0	0	0	534
2	0	0	0	0	542
3	0	0	0	0	550
4	0	0	0	0	558
5	0	0	0	0	562
6	0	0	0	0	562
7	0	0	0	0	562
8	0	0	0	0	553
9	0	0	0	0	539
10	0	0	0	0	512
11	0	0	0	0	480
12	0	0	0	0	451
13	0	0	0	0	428
14	0	0	0	0	415
15	0	0	0	0	411
0	0	0	0	0	416
1	0	0	0	0	425
2	0	0	0	0	432
3	0	0	0	0	441
4	0	0	0	0	452
5	0	0	0	0	460
6	0	0	0	0	469
7	0	0	0	0	477
8	0	0	0	0	483
9	0	0	0	0	489
10	0	0	0	0	493
11	0	0	0	0	500
12	0	0	0	0	502
13	0	0	0	0	505
14	0	0	0	0	510
15	0	0	0	0	508
0	0	0	0	0	511
1	0	0	0	0	507
2	0	0	0	0	512
3	0	0	0	0	508
4	0	0	0	0	508
5	0	0	0	0	510
6	0	0	0	0	510
7	0	0	0	0	512
8	0	0	0	0	512
9	0	0	0	0	510
10	0	0	0	0	511
11	0	0	0	0	512
12	0	0	0	0	511
13	0	0	0	0	513
14	0	0	0	0	513
15	0	0	0	0	513
0	0	0	0	0	509
1	0	0	0	0	515
2	0	0	0	0	516
3	0	0	0	0	514
4	0	0	0	0	515
5	0	0	0	0	513
6	0	0	0	0	512
7	0	0	0	0	514
8	0	0	0	0	513
9	0	0	0	0	513
10	0	0	0	0	513
11	0	0	0	0	515
12	0	0	0	0	514
13	0	0	0	0	515
14	0	0	0	0	512
15	0	0	0	0	511
0	0	0	0	0	514
1	0	0	0	0	519
2	0	0	0	0	525
3	0	0	0	0	526
4	0	0	0	0	519
5	0	0	0	0	523
6	0	0	0	0	527
7	0	0	0	0	523
8	0	0	0	0	518
9	0	0	0	0	501
10	0	0	0	0	490
11	0	0	0	0	488
12	0	0	0	0	490
13	0	0	0	0	490
14	0	0	0	0	491
15	0	0	0	0	494
0	0	0	0	0	494
1	0	0	0	0	499
2	0	0	0	0	499
3	0	0	0	0	500
4	0	0	0	0	508
5	0	0	0	0	510
6	0	0	0	0	500
7	0	0	0	0	551
8	0	0	0	0	746
9	0	0	0	0	1021
10	0	0	0	0	788
11	0	0	0	0	321
12	0	0	0	0	283
13	0	0	0	0	407
14	0	0	0	0	423
15	0	0	0	0	424
0	0	0	0	0	431
1	0	0	0	0	440
2	0	0	0	0	448
3	0	0	0	0	455
4	0	0	0	0	463
5	0	0	0	0	473
6	0	0	0	0	482
7	0	0	0	0	483
8	0	0	0	0	492
9	0	0	0	0	497
10	0	0	0	0	500
11	0	0	0	0	507
12	0	0	0	0	509
13	0	0	0	0	515
14	0	0	0	0	519
15	0	0	0	0	528
0	0	0	0	0	528
1	0	0	0	0	536
2	0	0	0	0	546
3	0	0	0	0	552
4	0	0	0	0	557
5	0	0	0	0	565
6	0	0	0	0	563
7	0	0	0	0	566
8	0	0	0	0	549
9	0	0	0	0	524
10	0	0	0	0	495
11	0	0	0	0	458
12	0	0	0	0	435
13	0	0	0	0	417
14	0	0	0	0	414
15	0	0	0	0	415
0	0	0	0	0	421
1	0	0	0	0	428
2	0	0	0	0	438
3	0	0	0	0	447
4	0	0	0	0	459
5	0	0	0	0	466
6	0	0	0	0	475
7	0	0	0	0	480
8	0	0	0	0	487
9	0	0	0	0	493
10	0	0	0	0	500
11	0	0	0	0	504
12	0	0	0	0	506
13	0	0	0	0	505
14	0	0	0	0	510
15	0	0	0	0	512
0	0	0	0	0	511
1	0	0	0	0	508
2	0	0	0	0	512
3	0	0	0	0	511
4	0	0	0	0	511
5	0	0	0	0	516
6	0	0	0	0	511
7	0	0	0	0	508
8	0	0	0	0	513
9	0	0	0	0	512
10	0	0	0	0	516
11	0	0	0	0	513
12	0	0	0	0	519
13	0	0	0	0	517
14	0	0	0	0	517
15	0	0	0	0	519
0	0	0	0	0	524
1	0	0	0	0	527
2	0	0	0	0	504
3	0	0	0	0	515
4	0	0	0	0	511
5	0	0	0	0	509
6	0	0	0	0	515
7	0	0	0	0	517
8	0	0	0	0	520
9	0	0	0	0	524
10	0	0	0	0	538
11	0	0	0	0	523
12	0	0	0	0	532
13	0	0	0	0	544
14	0	0	0	0	527
15	0	0	0	0	506
0	0	0	0	0	503
1	0	0	0	0	489
2	0	0	0	0	483
3	0	0	0	0	487
4	0	0	0	0	488
5	0	0	0	0	492
6	0	0	0	0	490
7	0	0	0	0	496
8	0	0	0	0	501
9	0	0	0	0	501
10	0	0	0	0	501
11	0	0	0	0	523
12	0	0	0	0	497
13	0	0	0	0	493
14	0	0	0	0	493
15	0	0	0	0	617
0	0	0	0	0	890
1	0	0	0	0	1022
2	0	0	0	0	526
3	0	0	0	0	240
4	0	0	0	0	376
5	0	0	0	0	427
6	0	0	0	0	419
7	0	0	0	0	428
8	0	0	0	0	434
9	0	0	0	0	440
10	0	0	0	0	470
11	0	0	0	0	463
12	0	0	0	0	470
13	0	0	0	0	482
14	0	0	0	0	495
15	0	0	0	0	489
0	0	0	0	0	487
1	0	0	0	0	510
2	0	0	0	0	504
3	0	0	0	0	515
4	0	0	0	0	514
5	0	0	0	0	531
6	0	0	0	0	539
7	0	0	0	0	527
8	0	0	0	0	548
9	0	0	0	0	540
10	0	0	0	0	555
11	0	0	0	0	574
12	0	0	0	0	581
13	0	0	0	0	561
14	0	0	0	0	572
15	0	0	0	0	565
0	0	0	0	0	543
1	0	0	0	0	505
2	0	0	0	0	473
3	0	0	0	0	440
4	0	0	0	0	441
5	0	0	0	0	417
6	0	0	0	0	441
7	0	0	0	0	424
8	0	0	0	0	415
9	0	0	0	0	440
10	0	0	0	0	452
11	0	0	0	0	457
12	0	0	0	0	477
13	0	0	0	0	475
14	0	0	0	0	492
15	0	0	0	0	488
0	0	0	0	0	509
1	0	0	0	0	499
2	0	0	0	0	505
3	0	0	0	0	511
4	0	0	0	0	524
5	0	0	0	0	506
6	0	0	0	0	507
7	0	0	0	0	512
8	0	0	0	0	511
9	0	0	0	0	499
10	0	0	0	0	533
11	0	0	0	0	505
12	0	0	0	0	509
13	0	0	0	0	499
14	0	0	0	0	503
15	0	0	0	0	508
0	0	0	0	0	499
1	0	0	0	0	536
2	0	0	0	0	496
3	0	0	0	0	527
4	0	0	0	0	505
5	0	0	0	0	510
6	0	0	0	0	510
7	0	0	0	0	507
8	0	0	0	0	507
9	0	0	0	0	511
10	0	0	0	0	506
11	0	0	0	0	521
12	0	0	0	0	520
13	0	0	0	0	510
14	0	0	0	0	513
15	0	0	0	0	522
0	0	0	0	0	503
1	0	0	0	0	518
2	0	0	0	0	511
3	0	0	0	0	510
4	0	0	0	0	508
5	0	0	0	0	507
6	0	0	0	0	508
7	0	0	0	0	520
8	0	0	0	0	510
9	0	0	0	0	514
10	0	0	0	0	512
11	0	0	0	0	513
12	0	0	0	0	523
13	0	0	0	0	543
14	0	0	0	0	503
15	0	0	0	0	524
0	0	0	0	0	529
1	0	0	0	0	517
2	0	0	0	0	497
3	0	0	0	0	506
4	0	0	0	0	493
5	0	0	0	0	485
6	0	0	0	0	489
7	0	0	0	0	487
8	0	0	0	0	499
9	0	0	0	0	497
10	0	0	0	0	507
11	0	0	0	0	500
12	0	0	0	0	500
13	0	0	0	0	505
14	0	0	0	0	508
15	0	0	0	0	507
0	0	0	0	0	495
1	0	0	0	0	567
2	0	0	0	0	749
3	0	0	0	0	1022
4	0	0	0	0	759
5	0	0	0	0	303
6	0	0	0	0	289
7	0	0	0	0	418
8	0	0	0	0	424
9	0	0	0	0	423
10	0	0	0	0	440
11	0	0	0	0	439
12	0	0	0	0	459
13	0	0	0	0	461
14	0	0	0	0	464
15	0	0	0	0	480
0	0	0	0	0	474
1	0	0	0	0	481
2	0	0	0	0	492
3	0	0	0	0	496
4	0	0	0	0	503
5	0	0	0	0	506
6	0	0	0	0	516
7	0	0	0	0	519
8	0	0	0	0	524
9	0	0	0	0	524
10	0	0	0	0	528
11	0	0	0	0	542
12	0	0	0	0	553
13	0	0	0	0	556
14	0	0	0	0	568
15	0	0	0	0	573
0	0	0	0	0	571
1	0	0	0	0	565
2	0	0	0	0	547
3	0	0	0	0	539
4	0	0	0	0	493
5	0	0	0	0	463
6	0	0	0	0	438
7	0	0	0	0	415
8	0	0	0	0	418
9	0	0	0	0	418
10	0	0	0	0	433
11	0	0	0	0	425
12	0	0	0	0	442
13	0	0	0	0	450
14	0	0	0	0	455
15	0	0	0	0	467
0	0	0	0	0	480
1	0	0	0	0	480
2	0	0	0	0	489
3	0	0	0	0	501
4	0	0	0	0	499
5	0	0	0	0	504
6	0	0	0	0	503
7	0	0	0	0	505
8	0	0	0	0	510
9	0	0	0	0	509
10	0	0	0	0	512
11	0	0	0	0	510
12	0	0	0	0	524
13	0	0	0	0	513
14	0	0	0	0	509
15	0	0	0	0	511
0	0	0	0	0	512
1	0	0	0	0	506
2	0	0	0	0	507
3	0	0	0	0	512
4	0	0	0	0	513
5	0	0	0	0	505
6	0	0	0	0	526
7	0	0	0	0	517
8	0	0	0	0	514
9	0	0	0	0	517
10	0	0	0	0	511
11	0	0	0	0	512
12	0	0	0	0	515
13	0	0	0	0	522
14	0	0	0	0	518
15	0	0	0	0	523
0	0	0	0	0	517
1	0	0	0	0	520
2	0	0	0	0	513
3	0	0	0	0	519
4	0	0	0	0	511
5	0	0	0	0	518
6	0	0	0	0	513
7	0	0	0	0	513
8	0	0	0	0	531
9	0	0	0	0	515
10	0	0	0	0	533
11	0	0	0	0	527
12	0	0	0	0	537
13	0	0	0	0	513
14	0	0	0	0	523
15	0	0	0	0	526
0	0	0	0	0	523
1	0	0	0	0	505
2	0	0	0	0	517
3	0	0	0	0	495
4	0	0	0	0	492
5	0	0	0	0	498
6	0	0	0	0	519
7	0	0	0	0	495
8	0	0	0	0	513
9	0	0	0	0	507
10	0	0	0	0	508
11	0	0	0	0	516
12	0	0	0	0	513
13	0	0	0	0	523
14	0	0	0	0	515
15	0	0	0	0	518
0	0	0	0	0	679
1	0	0	0	0	930
2	0	0	0	0	1022
3	0	0	0	0	473
4	0	0	0	0	260
5	0	0	0	0	374
6	0	0	0	0	440
7	0	0	0	0	426
8	0	0	0	0	439
9	0	0	0	0	446
10	0	0	0	0	445
11	0	0	0	0	467
12	0	0	0	0	461
13	0	0	0	0	481
14	0	0	0	0	484
15	0	0	0	0	485
0	0	0	0	0	500
1	0	0	0	0	497
2	0	0	0	0	509
3	0	0	0	0	511
4	0	0	0	0	510
5	0	0	0	0	516
6	0	0	0	0	519
7	0	0	0	0	524
8	0	0	0	0	534
9	0	0	0	0	540
10	0	0	0	0	542
11	0	0	0	0	568
12	0	0	0	0	550
13	0	0	0	0	572
14	0	0	0	0	569
15	0	0	0	0	560
0	0	0	0	0	551
1	0	0	0	0	524
2	0	0	0	0	518
3	0	0	0	0	465
4	0	0	0	0	458
5	0	0	0	0	419
6	0	0	0	0	415
7	0	0	0	0	419
8	0	0	0	0	421
9	0	0	0	0	436
10	0	0	0	0	435
11	0	0	0	0	444
12	0	0	0	0	470
13	0	0	0	0	456
14	0	0	0	0	468
15	0	0	0	0	474
0	0	0	0	0	493
1	0	0	0	0	492
2	0	0	0	0	498
3	0	0	0	0	509
4	0	0	0	0	505
5	0	0	0	0	510
6	0	0	0	0	508
7	0	0	0	0	505
8	0	0	0	0	515
9	0	0	0	0	501
10	0	0	0	0	519
11	0	0	0	0	505
12	0	0	0	0	504
13	0	0	0	0	513
14	0	0	0	0	504
15	0	0	0	0	506
0	0	0	0	0	511
1	0	0	0	0	512
2	0	0	0	0	511
3	0	0	0	0	512
4	0	0	0	0	518
5	0	0	0	0	511
6	0	0	0	0	504
7	0	0	0	0	516
8	0	0	0	0	511
9	0	0	0	0	510
10	0	0	0	0	523
11	0	0	0	0	511
12	0	0	0	0	514
13	0	0	0	0	507
14	0	0	0	0	512
15	0	0	0	0	515
0	0	0	0	0	510
1	0	0	0	0	515
2	0	0	0	0	514
3	0	0	0	0	519
4	0	0	0	0	514
5	0	0	0	0	505
6	0	0	0	0	515
7	0	0	0	0	517
8	0	0	0	0	511
9	0	0	0	0	511
10	0	0	0	0	516
11	0	0	0	0	514
12	0	0	0	0	514
13	0	0	0	0	515
14	0	0	0	0	509
15	0	0	0	0	510
0	0	0	0	0	508
1	0	0	0	0	514
2	0	0	0	0	518
3	0	0	0	0	524
4	0	0	0	0	518
5	0	0	0	0	526
6	0	0	0	0	526
7	0	0	0	0	510
8	0	0	0	0	510
9	0	0	0	0	509
10	0	0	0	0	487
11	0	0	0	0	486
12	0	0	0	0	493
13	0	0	0	0	489
14	0	0	0	0	499
15	0	0	0	0	496
0	0	0	0	0	504
1	0	0	0	0	504
2	0	0	0	0	506
3	0	0	0	0	502
4	0	0	0	0	524
5	0	0	0	0	503
6	0	0	0	0	507
7	0	0	0	0	640
8	0	0	0	0	905
9	0	0	0	0	1022
10	0	0	0	0	488
11	0	0	0	0	247
12	0	0	0	0	391
13	0	0	0	0	425
14	0	0	0	0	420
15	0	0	0	0	427
0	0	0	0	0	432
1	0	0	0	0	442
2	0	0	0	0	448
3	0	0	0	0	461
4	0	0	0	0	465
5	0	0	0	0	479
6	0	0	0	0	488
7	0	0	0	0	491
8	0	0	0	0	499
9	0	0	0	0	499
10	0	0	0	0	504
11	0	0	0	0	508
12	0	0	0	0	510
13	0	0	0	0	534
14	0	0	0	0	515
15	0	0	0	0	536
0	0	0	0	0	519
1	0	0	0	0	547
2	0	0	0	0	540
3	0	0	0	0	553
4	0	0	0	0	557
5	0	0	0	0	573
6	0	0	0	0	568
7	0	0	0	0	558
8	0	0	0	0	543
9	0	0	0	0	518
10	0	0	0	0	487
11	0	0	0	0	448
12	0	0	0	0	419
13	0	0	0	0	410
14	0	0	0	0	411
15	0	0	0	0	413
0	0	0	0	0	438
1	0	0	0	0	431
2	0	0	0	0	437
3	0	0	0	0	448
4	0	0	0	0	455
5	0	0	0	0	464
6	0	0	0	0	476
7	0	0	0	0	481
8	0	0	0	0	490
9	0	0	0	0	495
10	0	0	0	0	492
11	0	0	0	0	509
12	0	0	0	0	498
13	0	0	0	0	504
14	0	0	0	0	512
15	0	0	0	0	506
0	0	0	0	0	511
1	0	0	0	0	511
2	0	0	0	0	507
3	0	0	0	0	519
4	0	0	0	0	519
5	0	0	0	0	505
6	0	0	0	0	519
7	0	0	0	0	511
8	0	0	0	0	511
9	0	0	0	0	509
10	0	0	0	0	506
11	0	0	0	0	512
12	0	0	0	0	517
13	0	0	0	0	516
14	0	0	0	0	514
15	0	0	0	0	524
0	0	0	0	0	520
1	0	0	0	0	514
2	0	0	0	0	518
3	0	0	0	0	513
4	0	0	0	0	513
5	0	0	0	0	512
6	0	0	0	0	515
7	0	0	0	0	513
8	0	0	0	0	513
9	0	0	0	0	519
10	0	0	0	0	517
11	0	0	0	0	511
12	0	0	0	0	525
13	0	0	0	0	510
14	0	0	0	0	512
15	0	0	0	0	518
0	0	0	0	0	517
1	0	0	0	0	516
2	0	0	0	0	510
3	0	0	0	0	523
4	0	0	0	0	526
5	0	0	0	0	532
6	0	0	0	0	519
7	0	0	0	0	531
8	0	0	0	0	531
9	0	0	0	0	522
10	0	0	0	0	513
11	0	0	0	0	519
12	0	0	0	0	500
13	0	0	0	0	489
14	0	0	0	0	492
15	0	0	0	0	515
0	0	0	0	0	494
1	0	0	0	0	499
