# OpenSignals Text File Format. Version 1
# {"98:D3:91:FD:57:C6": {"position": 0, "device": "bitalino_rev", "device name": "98:D3:91:FD:57:C6", "device connection": "BTH98:D3:91:FD:57:C6", "sampling rate": 100, "resolution": [4, 1, 1, 1, 1, 10], "firmware version": 1281, "comments": "", "keywords": "", "mode": 0, "sync interval": 2, "date": "2022-6-2", "time": "9:31:20.510", "channels": [2], "sensor": ["ECGBIT"], "label": ["A2"], "column": ["nSeq", "I1", "I2", "O1", "O2", "A2"], "special": [{}], "digital IO": [0, 0, 1, 1], "convertedValues": 0}}
# EndOfHeader
0	0	0	0	0	320
1	0	0	0	0	448
2	0	0	0	0	428
3	0	0	0	0	443
4	0	0	0	0	439
5	0	0	0	0	461
6	0	0	0	0	470
7	0	0	0	0	490
8	0	0	0	0	505
9	0	0	0	0	494
10	0	0	0	0	480
11	0	0	0	0	474
12	0	0	0	0	545
13	0	0	0	0	534
14	0	0	0	0	480
15	0	0	0	0	498
0	0	0	0	0	523
1	0	0	0	0	529
2	0	0	0	0	541
3	0	0	0	0	546
4	0	0	0	0	569
5	0	0	0	0	514
6	0	0	0	0	526
7	0	0	0	0	517
8	0	0	0	0	538
9	0	0	0	0	531
10	0	0	0	0	508
11	0	0	0	0	473
12	0	0	0	0	511
13	0	0	0	0	456
14	0	0	0	0	425
15	0	0	0	0	485
0	0	0	0	0	455
1	0	0	0	0	436
2	0	0	0	0	453
3	0	0	0	0	503
4	0	0	0	0	483
5	0	0	0	0	468
6	0	0	0	0	479
7	0	0	0	0	506
8	0	0	0	0	514
9	0	0	0	0	468
10	0	0	0	0	483
11	0	0	0	0	527
12	0	0	0	0	485
13	0	0	0	0	497
14	0	0	0	0	509
15	0	0	0	0	526
0	0	0	0	0	502
1	0	0	0	0	495
2	0	0	0	0	489
3	0	0	0	0	489
4	0	0	0	0	513
5	0	0	0	0	515
6	0	0	0	0	497
7	0	0	0	0	511
8	0	0	0	0	524
9	0	0	0	0	540
10	0	0	0	0	513
11	0	0	0	0	536
12	0	0	0	0	527
13	0	0	0	0	522
14	0	0	0	0	516
15	0	0	0	0	523
0	0	0	0	0	487
1	0	0	0	0	468
2	0	0	0	0	471
3	0	0	0	0	486
4	0	0	0	0	478
5	0	0	0	0	471
6	0	0	0	0	492
7	0	0	0	0	489
8	0	0	0	0	492
9	0	0	0	0	510
10	0	0	0	0	496
11	0	0	0	0	614
12	0	0	0	0	869
13	0	0	0	0	992
14	0	0	0	0	424
15	0	0	0	0	276
0	0	0	0	0	389
1	0	0	0	0	436
2	0	0	0	0	439
3	0	0	0	0	453
4	0	0	0	0	466
5	0	0	0	0	445
6	0	0	0	0	475
7	0	0	0	0	467
8	0	0	0	0	464
9	0	0	0	0	479
10	0	0	0	0	499
11	0	0	0	0	511
12	0	0	0	0	510
13	0	0	0	0	504
14	0	0	0	0	484
15	0	0	0	0	513
0	0	0	0	0	513
1	0	0	0	0	518
2	0	0	0	0	530
3	0	0	0	0	543
4	0	0	0	0	540
5	0	0	0	0	532
6	0	0	0	0	538
7	0	0	0	0	536
8	0	0	0	0	516
9	0	0	0	0	540
10	0	0	0	0	498
11	0	0	0	0	517
12	0	0	0	0	467
13	0	0	0	0	475
14	0	0	0	0	511
15	0	0	0	0	455
0	0	0	0	0	517
1	0	0	0	0	435
2	0	0	0	0	459
3	0	0	0	0	477
4	0	0	0	0	440
5	0	0	0	0	469
6	0	0	0	0	485
7	0	0	0	0	483
8	0	0	0	0	531
9	0	0	0	0	492
10	0	0	0	0	489
11	0	0	0	0	517
12	0	0	0	0	491
13	0	0	0	0	547
14	0	0	0	0	504
15	0	0	0	0	500
0	0	0	0	0	481
1	0	0	0	0	505
2	0	0	0	0	507
3	0	0	0	0	505
4	0	0	0	0	531
5	0	0	0	0	501
6	0	0	0	0	514
7	0	0	0	0	522
8	0	0	0	0	561
9	0	0	0	0	511
10	0	0	0	0	487
11	0	0	0	0	509
12	0	0	0	0	506
13	0	0	0	0	516
14	0	0	0	0	551
15	0	0	0	0	556
0	0	0	0	0	534
1	0	0	0	0	562
2	0	0	0	0	541
3	0	0	0	0	561
4	0	0	0	0	503
5	0	0	0	0	557
6	0	0	0	0	441
7	0	0	0	0	472
8	0	0	0	0	494
9	0	0	0	0	499
10	0	0	0	0	514
11	0	0	0	0	516
12	0	0	0	0	505
13	0	0	0	0	492
14	0	0	0	0	499
15	0	0	0	0	523
0	0	0	0	0	499
1	0	0	0	0	671
2	0	0	0	0	885
3	0	0	0	0	949
4	0	0	0	0	496
5	0	0	0	0	259
6	0	0	0	0	373
7	0	0	0	0	444
8	0	0	0	0	465
9	0	0	0	0	457
10	0	0	0	0	479
11	0	0	0	0	499
12	0	0	0	0	524
13	0	0	0	0	511
14	0	0	0	0	508
15	0	0	0	0	437
0	0	0	0	0	487
1	0	0	0	0	532
2	0	0	0	0	567
3	0	0	0	0	540
4	0	0	0	0	557
5	0	0	0	0	535
6	0	0	0	0	591
7	0	0	0	0	583
8	0	0	0	0	567
9	0	0	0	0	584
10	0	0	0	0	553
11	0	0	0	0	525
12	0	0	0	0	564
13	0	0	0	0	536
14	0	0	0	0	527
15	0	0	0	0	455
0	0	0	0	0	468
1	0	0	0	0	456
2	0	0	0	0	456
3	0	0	0	0	465
4	0	0	0	0	427
5	0	0	0	0	505
6	0	0	0	0	439
7	0	0	0	0	405
8	0	0	0	0	447
9	0	0	0	0	412
10	0	0	0	0	453
11	0	0	0	0	459
12	0	0	0	0	416
13	0	0	0	0	502
14	0	0	0	0	447
15	0	0	0	0	474
0	0	0	0	0	504
1	0	0	0	0	462
2	0	0	0	0	496
3	0	0	0	0	508
4	0	0	0	0	497
5	0	0	0	0	491
6	0	0	0	0	479
7	0	0	0	0	499
8	0	0	0	0	505
9	0	0	0	0	512
10	0	0	0	0	467
11	0	0	0	0	471
12	0	0	0	0	526
13	0	0	0	0	491
14	0	0	0	0	488
15	0	0	0	0	495
0	0	0	0	0	507
1	0	0	0	0	536
2	0	0	0	0	554
3	0	0	0	0	557
4	0	0	0	0	536
5	0	0	0	0	520
6	0	0	0	0	509
7	0	0	0	0	483
8	0	0	0	0	484
9	0	0	0	0	490
10	0	0	0	0	511
11	0	0	0	0	475
12	0	0	0	0	487
13	0	0	0	0	518
14	0	0	0	0	469
15	0	0	0	0	467
0	0	0	0	0	469
1	0	0	0	0	478
2	0	0	0	0	641
3	0	0	0	0	935
4	0	0	0	0	949
5	0	0	0	0	499
6	0	0	0	0	227
7	0	0	0	0	343
8	0	0	0	0	396
9	0	0	0	0	423
10	0	0	0	0	428
11	0	0	0	0	426
12	0	0	0	0	510
13	0	0	0	0	443
14	0	0	0	0	463
15	0	0	0	0	473
0	0	0	0	0	488
1	0	0	0	0	507
2	0	0	0	0	572
3	0	0	0	0	514
4	0	0	0	0	568
5	0	0	0	0	521
6	0	0	0	0	555
7	0	0	0	0	505
8	0	0	0	0	518
9	0	0	0	0	550
10	0	0	0	0	552
11	0	0	0	0	566
12	0	0	0	0	498
13	0	0	0	0	515
14	0	0	0	0	534
15	0	0	0	0	551
0	0	0	0	0	506
1	0	0	0	0	553
2	0	0	0	0	504
3	0	0	0	0	511
4	0	0	0	0	465
5	0	0	0	0	473
6	0	0	0	0	496
7	0	0	0	0	503
8	0	0	0	0	484
9	0	0	0	0	463
10	0	0	0	0	525
11	0	0	0	0	518
12	0	0	0	0	520
13	0	0	0	0	479
14	0	0	0	0	518
15	0	0	0	0	504
0	0	0	0	0	516
1	0	0	0	0	507
2	0	0	0	0	513
3	0	0	0	0	512
4	0	0	0	0	511
5	0	0	0	0	481
6	0	0	0	0	505
7	0	0	0	0	535
8	0	0	0	0	489
9	0	0	0	0	551
10	0	0	0	0	476
11	0	0	0	0	479
12	0	0	0	0	516
13	0	0	0	0	543
14	0	0	0	0	547
15	0	0	0	0	545
0	0	0	0	0	574
1	0	0	0	0	569
2	0	0	0	0	484
3	0	0	0	0	542
4	0	0	0	0	503
5	0	0	0	0	514
6	0	0	0	0	476
7	0	0	0	0	502
8	0	0	0	0	520
9	0	0	0	0	513
10	0	0	0	0	520
11	0	0	0	0	469
12	0	0	0	0	529
13	0	0	0	0	486
14	0	0	0	0	463
15	0	0	0	0	504
0	0	0	0	0	649
1	0	0	0	0	840
2	0	0	0	0	856
3	0	0	0	0	378
4	0	0	0	0	249
5	0	0	0	0	384
6	0	0	0	0	430
7	0	0	0	0	472
8	0	0	0	0	478
9	0	0	0	0	431
10	0	0	0	0	467
11	0	0	0	0	449
12	0	0	0	0	428
13	0	0	0	0	416
14	0	0	0	0	463
15	0	0	0	0	475
0	0	0	0	0	502
1	0	0	0	0	505
2	0	0	0	0	498
3	0	0	0	0	457
4	0	0	0	0	492
5	0	0	0	0	525
6	0	0	0	0	518
7	0	0	0	0	486
8	0	0	0	0	553
9	0	0	0	0	560
10	0	0	0	0	522
11	0	0	0	0	513
12	0	0	0	0	488
13	0	0	0	0	492
14	0	0	0	0	497
15	0	0	0	0	489
0	0	0	0	0	465
1	0	0	0	0	476
2	0	0	0	0	462
3	0	0	0	0	438
4	0	0	0	0	456
5	0	0	0	0	479
6	0	0	0	0	487
7	0	0	0	0	450
8	0	0	0	0	499
9	0	0	0	0	444
10	0	0	0	0	476
11	0	0	0	0	491
12	0	0	0	0	488
13	0	0	0	0	498
14	0	0	0	0	539
15	0	0	0	0	526
0	0	0	0	0	509
1	0	0	0	0	505
2	0	0	0	0	519
3	0	0	0	0	522
4	0	0	0	0	520
5	0	0	0	0	519
6	0	0	0	0	579
7	0	0	0	0	485
8	0	0	0	0	432
9	0	0	0	0	451
10	0	0	0	0	462
11	0	0	0	0	481
12	0	0	0	0	515
13	0	0	0	0	534
14	0	0	0	0	563
15	0	0	0	0	559
0	0	0	0	0	572
1	0	0	0	0	575
2	0	0	0	0	538
3	0	0	0	0	538
4	0	0	0	0	546
5	0	0	0	0	537
6	0	0	0	0	472
7	0	0	0	0	512
8	0	0	0	0	465
9	0	0	0	0	468
10	0	0	0	0	515
11	0	0	0	0	501
12	0	0	0	0	506
13	0	0	0	0	543
14	0	0	0	0	553
15	0	0	0	0	542
0	0	0	0	0	654
1	0	0	0	0	947
2	0	0	0	0	820
3	0	0	0	0	390
4	0	0	0	0	319
5	0	0	0	0	420
6	0	0	0	0	472
7	0	0	0	0	466
8	0	0	0	0	488
9	0	0	0	0	450
10	0	0	0	0	567
11	0	0	0	0	425
12	0	0	0	0	455
13	0	0	0	0	510
14	0	0	0	0	488
15	0	0	0	0	518
0	0	0	0	0	530
1	0	0	0	0	538
2	0	0	0	0	566
3	0	0	0	0	475
4	0	0	0	0	544
5	0	0	0	0	509
6	0	0	0	0	541
7	0	0	0	0	542
8	0	0	0	0	558
9	0	0	0	0	522
10	0	0	0	0	547
11	0	0	0	0	571
12	0	0	0	0	525
13	0	0	0	0	551
14	0	0	0	0	539
15	0	0	0	0	512
0	0	0	0	0	495
1	0	0	0	0	484
2	0	0	0	0	482
3	0	0	0	0	464
4	0	0	0	0	521
5	0	0	0	0	491
6	0	0	0	0	456
7	0	0	0	0	505
8	0	0	0	0	502
9	0	0	0	0	548
10	0	0	0	0	537
11	0	0	0	0	526
12	0	0	0	0	497
13	0	0	0	0	510
14	0	0	0	0	516
15	0	0	0	0	501
0	0	0	0	0	500
1	0	0	0	0	523
2	0	0	0	0	514
3	0	0	0	0	478
4	0	0	0	0	517
5	0	0	0	0	484
6	0	0	0	0	440
7	0	0	0	0	476
8	0	0	0	0	505
9	0	0	0	0	484
10	0	0	0	0	493
11	0	0	0	0	529
12	0	0	0	0	480
13	0	0	0	0	531
14	0	0	0	0	503
15	0	0	0	0	463
0	0	0	0	0	455
1	0	0	0	0	426
2	0	0	0	0	489
3	0	0	0	0	484
4	0	0	0	0	465
5	0	0	0	0	460
6	0	0	0	0	450
7	0	0	0	0	504
8	0	0	0	0	497
9	0	0	0	0	524
10	0	0	0	0	496
11	0	0	0	0	465
12	0	0	0	0	575
13	0	0	0	0	808
14	0	0	0	0	1022
15	0	0	0	0	561
0	0	0	0	0	308
1	0	0	0	0	307
2	0	0	0	0	455
3	0	0	0	0	380
4	0	0	0	0	451
5	0	0	0	0	440
6	0	0	0	0	420
7	0	0	0	0	446
8	0	0	0	0	471
9	0	0	0	0	476
10	0	0	0	0	491
11	0	0	0	0	499
12	0	0	0	0	495
13	0	0	0	0	507
14	0	0	0	0	518
15	0	0	0	0	501
0	0	0	0	0	514
1	0	0	0	0	506
2	0	0	0	0	528
3	0	0	0	0	513
4	0	0	0	0	607
5	0	0	0	0	474
6	0	0	0	0	495
7	0	0	0	0	528
8	0	0	0	0	515
9	0	0	0	0	547
10	0	0	0	0	458
11	0	0	0	0	445
12	0	0	0	0	457
13	0	0	0	0	429
14	0	0	0	0	472
15	0	0	0	0	419
0	0	0	0	0	460
1	0	0	0	0	499
2	0	0	0	0	519
3	0	0	0	0	551
4	0	0	0	0	516
5	0	0	0	0	494
6	0	0	0	0	501
7	0	0	0	0	520
8	0	0	0	0	547
9	0	0	0	0	510
10	0	0	0	0	512
11	0	0	0	0	531
12	0	0	0	0	516
13	0	0	0	0	505
14	0	0	0	0	545
15	0	0	0	0	575
0	0	0	0	0	572
1	0	0	0	0	508
2	0	0	0	0	499
3	0	0	0	0	531
4	0	0	0	0	502
5	0	0	0	0	537
6	0	0	0	0	617
7	0	0	0	0	545
8	0	0	0	0	503
9	0	0	0	0	568
10	0	0	0	0	587
11	0	0	0	0	536
12	0	0	0	0	542
13	0	0	0	0	536
14	0	0	0	0	499
15	0	0	0	0	476
0	0	0	0	0	474
1	0	0	0	0	489
2	0	0	0	0	485
3	0	0	0	0	476
4	0	0	0	0	505
5	0	0	0	0	498
6	0	0	0	0	503
7	0	0	0	0	531
8	0	0	0	0	493
9	0	0	0	0	629
10	0	0	0	0	897
11	0	0	0	0	994
12	0	0	0	0	471
13	0	0	0	0	255
14	0	0	0	0	375
15	0	0	0	0	447
0	0	0	0	0	468
1	0	0	0	0	462
2	0	0	0	0	487
3	0	0	0	0	462
4	0	0	0	0	454
5	0	0	0	0	497
6	0	0	0	0	490
7	0	0	0	0	479
8	0	0	0	0	532
9	0	0	0	0	512
10	0	0	0	0	504
11	0	0	0	0	556
12	0	0	0	0	549
13	0	0	0	0	550
14	0	0	0	0	562
15	0	0	0	0	516
0	0	0	0	0	505
1	0	0	0	0	514
2	0	0	0	0	516
3	0	0	0	0	592
4	0	0	0	0	569
5	0	0	0	0	532
6	0	0	0	0	571
7	0	0	0	0	524
8	0	0	0	0	483
9	0	0	0	0	464
10	0	0	0	0	445
11	0	0	0	0	420
12	0	0	0	0	430
13	0	0	0	0	387
14	0	0	0	0	391
15	0	0	0	0	461
0	0	0	0	0	441
1	0	0	0	0	456
2	0	0	0	0	458
3	0	0	0	0	438
4	0	0	0	0	513
5	0	0	0	0	472
6	0	0	0	0	551
7	0	0	0	0	394
8	0	0	0	0	477
9	0	0	0	0	424
10	0	0	0	0	468
11	0	0	0	0	500
12	0	0	0	0	387
13	0	0	0	0	494
14	0	0	0	0	444
15	0	0	0	0	502
0	0	0	0	0	425
1	0	0	0	0	461
2	0	0	0	0	500
3	0	0	0	0	481
4	0	0	0	0	537
5	0	0	0	0	562
6	0	0	0	0	498
7	0	0	0	0	529
8	0	0	0	0	540
9	0	0	0	0	550
10	0	0	0	0	562
11	0	0	0	0	459
12	0	0	0	0	472
13	0	0	0	0	442
14	0	0	0	0	450
15	0	0	0	0	452
0	0	0	0	0	515
1	0	0	0	0	436
2	0	0	0	0	453
3	0	0	0	0	482
4	0	0	0	0	477
5	0	0	0	0	531
6	0	0	0	0	476
7	0	0	0	0	518
8	0	0	0	0	697
9	0	0	0	0	994
10	0	0	0	0	727
11	0	0	0	0	382
12	0	0	0	0	371
13	0	0	0	0	478
14	0	0	0	0	459
15	0	0	0	0	462
0	0	0	0	0	438
1	0	0	0	0	478
2	0	0	0	0	508
3	0	0	0	0	477
4	0	0	0	0	506
5	0	0	0	0	532
6	0	0	0	0	482
7	0	0	0	0	507
8	0	0	0	0	558
9	0	0	0	0	513
10	0	0	0	0	560
11	0	0	0	0	571
12	0	0	0	0	549
13	0	0	0	0	545
14	0	0	0	0	558
15	0	0	0	0	531
0	0	0	0	0	541
1	0	0	0	0	595
2	0	0	0	0	543
3	0	0	0	0	527
4	0	0	0	0	536
5	0	0	0	0	559
6	0	0	0	0	496
7	0	0	0	0	484
8	0	0	0	0	484
9	0	0	0	0	524
10	0	0	0	0	476
11	0	0	0	0	448
12	0	0	0	0	501
13	0	0	0	0	502
14	0	0	0	0	464
15	0	0	0	0	485
0	0	0	0	0	512
1	0	0	0	0	530
2	0	0	0	0	525
3	0	0	0	0	527
4	0	0	0	0	519
5	0	0	0	0	481
6	0	0	0	0	521
7	0	0	0	0	502
8	0	0	0	0	513
9	0	0	0	0	518
10	0	0	0	0	562
11	0	0	0	0	551
12	0	0	0	0	500
13	0	0	0	0	529
14	0	0	0	0	479
15	0	0	0	0	510
0	0	0	0	0	527
1	0	0	0	0	516
2	0	0	0	0	558
3	0	0	0	0	564
4	0	0	0	0	570
5	0	0	0	0	590
6	0	0	0	0	563
7	0	0	0	0	543
8	0	0	0	0	568
9	0	0	0	0	543
10	0	0	0	0	535
11	0	0	0	0	521
12	0	0	0	0	443
13	0	0	0	0	442
14	0	0	0	0	459
15	0	0	0	0	492
0	0	0	0	0	493
1	0	0	0	0	459
2	0	0	0	0	481
3	0	0	0	0	486
4	0	0	0	0	510
5	0	0	0	0	665
6	0	0	0	0	869
7	0	0	0	0	1006
8	0	0	0	0	529
9	0	0	0	0	301
10	0	0	0	0	352
11	0	0	0	0	400
12	0	0	0	0	372
13	0	0	0	0	364
14	0	0	0	0	390
15	0	0	0	0	416
0	0	0	0	0	475
1	0	0	0	0	507
2	0	0	0	0	432
3	0	0	0	0	447
4	0	0	0	0	481
5	0	0	0	0	489
6	0	0	0	0	479
7	0	0	0	0	479
8	0	0	0	0	515
9	0	0	0	0	484
10	0	0	0	0	517
11	0	0	0	0	516
12	0	0	0	0	553
13	0	0	0	0	568
14	0	0	0	0	610
15	0	0	0	0	543
0	0	0	0	0	519
1	0	0	0	0	529
2	0	0	0	0	510
3	0	0	0	0	519
4	0	0	0	0	532
5	0	0	0	0	431
6	0	0	0	0	453
7	0	0	0	0	495
8	0	0	0	0	461
9	0	0	0	0	497
10	0	0	0	0	448
11	0	0	0	0	415
12	0	0	0	0	401
13	0	0	0	0	392
14	0	0	0	0	462
15	0	0	0	0	545
0	0	0	0	0	504
1	0	0	0	0	465
2	0	0	0	0	477
3	0	0	0	0	478
4	0	0	0	0	491
5	0	0	0	0	508
6	0	0	0	0	502
7	0	0	0	0	483
8	0	0	0	0	443
9	0	0	0	0	382
10	0	0	0	0	481
11	0	0	0	0	463
12	0	0	0	0	473
13	0	0	0	0	530
14	0	0	0	0	602
15	0	0	0	0	615
0	0	0	0	0	590
1	0	0	0	0	545
2	0	0	0	0	599
3	0	0	0	0	500
4	0	0	0	0	438
5	0	0	0	0	457
6	0	0	0	0	481
7	0	0	0	0	453
8	0	0	0	0	401
9	0	0	0	0	464
10	0	0	0	0	506
11	0	0	0	0	542
12	0	0	0	0	548
13	0	0	0	0	509
14	0	0	0	0	616
15	0	0	0	0	873
0	0	0	0	0	1022
1	0	0	0	0	564
2	0	0	0	0	271
3	0	0	0	0	331
4	0	0	0	0	401
5	0	0	0	0	456
6	0	0	0	0	487
7	0	0	0	0	436
8	0	0	0	0	478
9	0	0	0	0	420
10	0	0	0	0	480
11	0	0	0	0	474
12	0	0	0	0	467
13	0	0	0	0	472
14	0	0	0	0	502
15	0	0	0	0	522
0	0	0	0	0	574
1	0	0	0	0	518
2	0	0	0	0	527
3	0	0	0	0	528
4	0	0	0	0	561
5	0	0	0	0	522
6	0	0	0	0	538
7	0	0	0	0	550
8	0	0	0	0	573
9	0	0	0	0	515
10	0	0	0	0	540
11	0	0	0	0	575
12	0	0	0	0	577
13	0	0	0	0	575
14	0	0	0	0	560
15	0	0	0	0	545
0	0	0	0	0	548
1	0	0	0	0	508
2	0	0	0	0	508
3	0	0	0	0	482
4	0	0	0	0	409
5	0	0	0	0	405
6	0	0	0	0	408
7	0	0	0	0	460
8	0	0	0	0	480
9	0	0	0	0	490
10	0	0	0	0	521
11	0	0	0	0	548
12	0	0	0	0	531
13	0	0	0	0	559
14	0	0	0	0	488
15	0	0	0	0	436
0	0	0	0	0	457
1	0	0	0	0	451
2	0	0	0	0	478
3	0	0	0	0	486
4	0	0	0	0	519
5	0	0	0	0	476
6	0	0	0	0	498
7	0	0	0	0	501
8	0	0	0	0	518
9	0	0	0	0	454
10	0	0	0	0	519
11	0	0	0	0	441
12	0	0	0	0	502
13	0	0	0	0	477
14	0	0	0	0	467
15	0	0	0	0	471
0	0	0	0	0	424
1	0	0	0	0	528
2	0	0	0	0	527
3	0	0	0	0	418
4	0	0	0	0	472
5	0	0	0	0	432
6	0	0	0	0	423
7	0	0	0	0	407
8	0	0	0	0	463
9	0	0	0	0	482
10	0	0	0	0	519
11	0	0	0	0	723
12	0	0	0	0	884
13	0	0	0	0	721
14	0	0	0	0	377
15	0	0	0	0	316
0	0	0	0	0	410
1	0	0	0	0	429
2	0	0	0	0	428
3	0	0	0	0	440
4	0	0	0	0	413
5	0	0	0	0	391
6	0	0	0	0	428
7	0	0	0	0	520
8	0	0	0	0	439
9	0	0	0	0	504
10	0	0	0	0	509
11	0	0	0	0	489
12	0	0	0	0	523
13	0	0	0	0	533
14	0	0	0	0	534
15	0	0	0	0	499
0	0	0	0	0	500
1	0	0	0	0	470
2	0	0	0	0	513
3	0	0	0	0	581
4	0	0	0	0	603
5	0	0	0	0	601
6	0	0	0	0	564
7	0	0	0	0	581
8	0	0	0	0	471
9	0	0	0	0	410
10	0	0	0	0	473
11	0	0	0	0	439
12	0	0	0	0	545
13	0	0	0	0	522
14	0	0	0	0	505
15	0	0	0	0	505
0	0	0	0	0	525
1	0	0	0	0	525
2	0	0	0	0	507
3	0	0	0	0	509
4	0	0	0	0	428
5	0	0	0	0	449
6	0	0	0	0	513
7	0	0	0	0	480
8	0	0	0	0	499
9	0	0	0	0	550
10	0	0	0	0	529
11	0	0	0	0	520
12	0	0	0	0	556
13	0	0	0	0	553
14	0	0	0	0	556
15	0	0	0	0	456
0	0	0	0	0	479
1	0	0	0	0	504
2	0	0	0	0	527
3	0	0	0	0	517
4	0	0	0	0	528
5	0	0	0	0	569
6	0	0	0	0	556
7	0	0	0	0	540
8	0	0	0	0	540
9	0	0	0	0	536
10	0	0	0	0	535
11	0	0	0	0	515
12	0	0	0	0	524
13	0	0	0	0	496
14	0	0	0	0	447
15	0	0	0	0	478
0	0	0	0	0	554
1	0	0	0	0	463
2	0	0	0	0	540
3	0	0	0	0	471
4	0	0	0	0	488
5	0	0	0	0	583
6	0	0	0	0	485
7	0	0	0	0	466
8	0	0	0	0	595
9	0	0	0	0	812
10	0	0	0	0	1022
11	0	0	0	0	619
12	0	0	0	0	316
13	0	0	0	0	388
14	0	0	0	0	466
15	0	0	0	0	452
0	0	0	0	0	444
1	0	0	0	0	454
2	0	0	0	0	483
3	0	0	0	0	501
4	0	0	0	0	521
5	0	0	0	0	491
6	0	0	0	0	505
7	0	0	0	0	562
8	0	0	0	0	628
9	0	0	0	0	640
10	0	0	0	0	593
11	0	0	0	0	573
12	0	0	0	0	521
13	0	0	0	0	514
14	0	0	0	0	532
15	0	0	0	0	542
0	0	0	0	0	507
1	0	0	0	0	545
2	0	0	0	0	573
3	0	0	0	0	615
4	0	0	0	0	583
5	0	0	0	0	567
6	0	0	0	0	545
7	0	0	0	0	504
8	0	0	0	0	508
9	0	0	0	0	460
10	0	0	0	0	460
11	0	0	0	0	442
12	0	0	0	0	425
13	0	0	0	0	428
14	0	0	0	0	455
15	0	0	0	0	445
0	0	0	0	0	459
1	0	0	0	0	482
2	0	0	0	0	480
3	0	0	0	0	420
4	0	0	0	0	508
5	0	0	0	0	461
6	0	0	0	0	482
7	0	0	0	0	484
8	0	0	0	0	427
9	0	0	0	0	462
10	0	0	0	0	459
11	0	0	0	0	440
12	0	0	0	0	478
13	0	0	0	0	540
14	0	0	0	0	536
15	0	0	0	0	525
0	0	0	0	0	578
1	0	0	0	0	447
2	0	0	0	0	541
3	0	0	0	0	563
4	0	0	0	0	492
5	0	0	0	0	487
6	0	0	0	0	473
7	0	0	0	0	499
8	0	0	0	0	472
9	0	0	0	0	475
10	0	0	0	0	542
11	0	0	0	0	489
12	0	0	0	0	459
13	0	0	0	0	474
14	0	0	0	0	486
15	0	0	0	0	465
0	0	0	0	0	463
1	0	0	0	0	476
2	0	0	0	0	688
3	0	0	0	0	948
4	0	0	0	0	904
5	0	0	0	0	458
6	0	0	0	0	286
7	0	0	0	0	342
8	0	0	0	0	351
9	0	0	0	0	348
10	0	0	0	0	314
11	0	0	0	0	484
12	0	0	0	0	519
13	0	0	0	0	504
14	0	0	0	0	506
15	0	0	0	0	502
0	0	0	0	0	528
1	0	0	0	0	609
2	0	0	0	0	574
3	0	0	0	0	534
4	0	0	0	0	490
5	0	0	0	0	470
6	0	0	0	0	518
7	0	0	0	0	552
8	0	0	0	0	579
9	0	0	0	0	582
10	0	0	0	0	496
11	0	0	0	0	525
12	0	0	0	0	496
13	0	0	0	0	490
14	0	0	0	0	522
15	0	0	0	0	519
0	0	0	0	0	568
1	0	0	0	0	520
2	0	0	0	0	572
3	0	0	0	0	438
4	0	0	0	0	435
5	0	0	0	0	504
6	0	0	0	0	446
7	0	0	0	0	462
8	0	0	0	0	495
9	0	0	0	0	508
10	0	0	0	0	492
11	0	0	0	0	548
12	0	0	0	0	501
13	0	0	0	0	471
14	0	0	0	0	473
15	0	0	0	0	531
0	0	0	0	0	508
1	0	0	0	0	484
2	0	0	0	0	497
3	0	0	0	0	532
4	0	0	0	0	497
5	0	0	0	0	504
6	0	0	0	0	520
7	0	0	0	0	527
8	0	0	0	0	478
9	0	0	0	0	538
10	0	0	0	0	497
11	0	0	0	0	519
12	0	0	0	0	590
13	0	0	0	0	527
14	0	0	0	0	492
15	0	0	0	0	524
0	0	0	0	0	479
1	0	0	0	0	457
2	0	0	0	0	430
3	0	0	0	0	484
4	0	0	0	0	436
5	0	0	0	0	431
6	0	0	0	0	476
7	0	0	0	0	502
8	0	0	0	0	473
9	0	0	0	0	505
10	0	0	0	0	505
11	0	0	0	0	542
12	0	0	0	0	560
13	0	0	0	0	689
14	0	0	0	0	870
15	0	0	0	0	940
0	0	0	0	0	405
1	0	0	0	0	339
2	0	0	0	0	323
3	0	0	0	0	378
4	0	0	0	0	447
5	0	0	0	0	436
6	0	0	0	0	437
7	0	0	0	0	425
8	0	0	0	0	483
9	0	0	0	0	498
10	0	0	0	0	486
11	0	0	0	0	453
12	0	0	0	0	480
13	0	0	0	0	463
14	0	0	0	0	435
15	0	0	0	0	489
0	0	0	0	0	520
1	0	0	0	0	525
2	0	0	0	0	470
3	0	0	0	0	515
4	0	0	0	0	508
5	0	0	0	0	512
6	0	0	0	0	519
7	0	0	0	0	522
8	0	0	0	0	407
9	0	0	0	0	426
10	0	0	0	0	483
11	0	0	0	0	506
12	0	0	0	0	446
13	0	0	0	0	415
14	0	0	0	0	440
15	0	0	0	0	358
0	0	0	0	0	399
1	0	0	0	0	447
2	0	0	0	0	512
3	0	0	0	0	509
4	0	0	0	0	444
5	0	0	0	0	500
6	0	0	0	0	423
7	0	0	0	0	469
8	0	0	0	0	535
9	0	0	0	0	481
10	0	0	0	0	507
11	0	0	0	0	542
12	0	0	0	0	526
13	0	0	0	0	450
14	0	0	0	0	511
15	0	0	0	0	461
0	0	0	0	0	515
1	0	0	0	0	519
2	0	0	0	0	536
3	0	0	0	0	547
4	0	0	0	0	548
5	0	0	0	0	484
6	0	0	0	0	598
7	0	0	0	0	480
8	0	0	0	0	628
9	0	0	0	0	571
10	0	0	0	0	533
11	0	0	0	0	456
12	0	0	0	0	511
13	0	0	0	0	515
14	0	0	0	0	464
15	0	0	0	0	505
0	0	0	0	0	475
1	0	0	0	0	490
2	0	0	0	0	470
3	0	0	0	0	474
4	0	0	0	0	488
5	0	0	0	0	507
6	0	0	0	0	511
7	0	0	0	0	487
8	0	0	0	0	601
9	0	0	0	0	853
10	0	0	0	0	1022
11	0	0	0	0	565
12	0	0	0	0	292
13	0	0	0	0	332
14	0	0	0	0	430
15	0	0	0	0	439
0	0	0	0	0	425
1	0	0	0	0	411
2	0	0	0	0	395
3	0	0	0	0	450
4	0	0	0	0	463
5	0	0	0	0	510
6	0	0	0	0	422
7	0	0	0	0	540
8	0	0	0	0	635
9	0	0	0	0	587
10	0	0	0	0	602
11	0	0	0	0	577
12	0	0	0	0	518
13	0	0	0	0	557
14	0	0	0	0	598
15	0	0	0	0	629
0	0	0	0	0	634
1	0	0	0	0	601
2	0	0	0	0	563
3	0	0	0	0	612
4	0	0	0	0	576
5	0	0	0	0	581
6	0	0	0	0	537
7	0	0	0	0	562
8	0	0	0	0	547
9	0	0	0	0	547
10	0	0	0	0	544
11	0	0	0	0	493
12	0	0	0	0	525
13	0	0	0	0	480
14	0	0	0	0	468
15	0	0	0	0	523
0	0	0	0	0	531
1	0	0	0	0	527
2	0	0	0	0	562
3	0	0	0	0	462
4	0	0	0	0	515
5	0	0	0	0	532
6	0	0	0	0	543
7	0	0	0	0	461
8	0	0	0	0	501
9	0	0	0	0	525
10	0	0	0	0	450
11	0	0	0	0	472
12	0	0	0	0	497
13	0	0	0	0	522
14	0	0	0	0	533
15	0	0	0	0	569
0	0	0	0	0	579
1	0	0	0	0	541
2	0	0	0	0	462
3	0	0	0	0	459
4	0	0	0	0	470
5	0	0	0	0	462
6	0	0	0	0	408
7	0	0	0	0	418
8	0	0	0	0	423
9	0	0	0	0	434
10	0	0	0	0	431
11	0	0	0	0	458
12	0	0	0	0	503
13	0	0	0	0	511
14	0	0	0	0	518
15	0	0	0	0	463
0	0	0	0	0	552
1	0	0	0	0	750
2	0	0	0	0	1012
3	0	0	0	0	700
4	0	0	0	0	382
5	0	0	0	0	343
6	0	0	0	0	452
7	0	0	0	0	452
8	0	0	0	0	433
9	0	0	0	0	500
10	0	0	0	0	545
11	0	0	0	0	545
12	0	0	0	0	530
13	0	0	0	0	518
14	0	0	0	0	493
15	0	0	0	0	515
0	0	0	0	0	520
1	0	0	0	0	504
2	0	0	0	0	515
3	0	0	0	0	581
4	0	0	0	0	564
5	0	0	0	0	547
6	0	0	0	0	521
7	0	0	0	0	540
8	0	0	0	0	522
9	0	0	0	0	507
10	0	0	0	0	458
11	0	0	0	0	476
12	0	0	0	0	503
13	0	0	0	0	487
14	0	0	0	0	515
15	0	0	0	0	432
0	0	0	0	0	489
1	0	0	0	0	424
2	0	0	0	0	421
3	0	0	0	0	450
4	0	0	0	0	432
5	0	0	0	0	404
6	0	0	0	0	435
7	0	0	0	0	440
8	0	0	0	0	442
9	0	0	0	0	462
10	0	0	0	0	498
11	0	0	0	0	492
12	0	0	0	0	504
13	0	0	0	0	487
14	0	0	0	0	479
15	0	0	0	0	521
0	0	0	0	0	431
1	0	0	0	0	435
2	0	0	0	0	463
3	0	0	0	0	446
4	0	0	0	0	495
5	0	0	0	0	516
6	0	0	0	0	526
7	0	0	0	0	512
8	0	0	0	0	521
9	0	0	0	0	532
10	0	0	0	0	536
11	0	0	0	0	475
12	0	0	0	0	481
13	0	0	0	0	454
14	0	0	0	0	466
15	0	0	0	0	490
0	0	0	0	0	519
1	0	0	0	0	511
2	0	0	0	0	467
3	0	0	0	0	423
4	0	0	0	0	454
5	0	0	0	0	500
6	0	0	0	0	485
7	0	0	0	0	527
8	0	0	0	0	655
9	0	0	0	0	923
10	0	0	0	0	1022
11	0	0	0	0	558
12	0	0	0	0	327
13	0	0	0	0	431
14	0	0	0	0	454
15	0	0	0	0	467
0	0	0	0	0	333
1	0	0	0	0	292
2	0	0	0	0	386
3	0	0	0	0	429
4	0	0	0	0	465
5	0	0	0	0	540
6	0	0	0	0	541
7	0	0	0	0	579
8	0	0	0	0	524
9	0	0	0	0	485
10	0	0	0	0	521
11	0	0	0	0	537
12	0	0	0	0	491
13	0	0	0	0	528
14	0	0	0	0	540
15	0	0	0	0	671
0	0	0	0	0	475
1	0	0	0	0	473
2	0	0	0	0	521
3	0	0	0	0	536
4	0	0	0	0	537
5	0	0	0	0	533
6	0	0	0	0	537
7	0	0	0	0	528
8	0	0	0	0	498
9	0	0	0	0	421
10	0	0	0	0	469
11	0	0	0	0	470
12	0	0	0	0	479
13	0	0	0	0	501
14	0	0	0	0	531
15	0	0	0	0	557
0	0	0	0	0	395
1	0	0	0	0	495
2	0	0	0	0	467
3	0	0	0	0	487
4	0	0	0	0	540
5	0	0	0	0	537
6	0	0	0	0	543
7	0	0	0	0	523
8	0	0	0	0	532
9	0	0	0	0	589
10	0	0	0	0	558
11	0	0	0	0	477
12	0	0	0	0	502
13	0	0	0	0	510
14	0	0	0	0	543
15	0	0	0	0	569
0	0	0	0	0	582
1	0	0	0	0	573
2	0	0	0	0	548
3	0	0	0	0	475
4	0	0	0	0	552
5	0	0	0	0	559
6	0	0	0	0	500
7	0	0	0	0	544
8	0	0	0	0	580
9	0	0	0	0	552
10	0	0	0	0	545
11	0	0	0	0	555
12	0	0	0	0	536
13	0	0	0	0	515
14	0	0	0	0	447
15	0	0	0	0	505
0	0	0	0	0	767
1	0	0	0	0	967
2	0	0	0	0	681
3	0	0	0	0	340
4	0	0	0	0	254
5	0	0	0	0	329
6	0	0	0	0	359
7	0	0	0	0	359
8	0	0	0	0	410
9	0	0	0	0	476
10	0	0	0	0	444
11	0	0	0	0	426
12	0	0	0	0	452
13	0	0	0	0	377
14	0	0	0	0	361
15	0	0	0	0	452
0	0	0	0	0	485
1	0	0	0	0	524
2	0	0	0	0	562
3	0	0	0	0	582
4	0	0	0	0	529
5	0	0	0	0	492
6	0	0	0	0	539
7	0	0	0	0	559
8	0	0	0	0	491
9	0	0	0	0	496
10	0	0	0	0	502
11	0	0	0	0	568
12	0	0	0	0	493
13	0	0	0	0	486
14	0	0	0	0	425
15	0	0	0	0	431
0	0	0	0	0	417
1	0	0	0	0	427
2	0	0	0	0	492
3	0	0	0	0	509
4	0	0	0	0	485
5	0	0	0	0	499
6	0	0	0	0	506
7	0	0	0	0	480
8	0	0	0	0	484
9	0	0	0	0	431
10	0	0	0	0	432
11	0	0	0	0	487
12	0	0	0	0	528
13	0	0	0	0	550
14	0	0	0	0	572
15	0	0	0	0	540
0	0	0	0	0	511
1	0	0	0	0	461
2	0	0	0	0	461
3	0	0	0	0	422
4	0	0	0	0	467
5	0	0	0	0	527
6	0	0	0	0	569
7	0	0	0	0	513
8	0	0	0	0	589
9	0	0	0	0	479
10	0	0	0	0	486
11	0	0	0	0	524
12	0	0	0	0	487
13	0	0	0	0	505
14	0	0	0	0	488
15	0	0	0	0	494
0	0	0	0	0	487
1	0	0	0	0	536
2	0	0	0	0	471
3	0	0	0	0	477
4	0	0	0	0	510
5	0	0	0	0	498
6	0	0	0	0	638
7	0	0	0	0	927
8	0	0	0	0	965
9	0	0	0	0	530
10	0	0	0	0	291
11	0	0	0	0	358
12	0	0	0	0	395
13	0	0	0	0	425
14	0	0	0	0	453
15	0	0	0	0	485
0	0	0	0	0	499
1	0	0	0	0	525
2	0	0	0	0	551
3	0	0	0	0	467
4	0	0	0	0	503
5	0	0	0	0	484
6	0	0	0	0	490
7	0	0	0	0	524
8	0	0	0	0	533
9	0	0	0	0	554
10	0	0	0	0	543
11	0	0	0	0	547
12	0	0	0	0	556
13	0	0	0	0	540
14	0	0	0	0	535
15	0	0	0	0	552
0	0	0	0	0	599
1	0	0	0	0	469
2	0	0	0	0	496
3	0	0	0	0	512
4	0	0	0	0	521
5	0	0	0	0	484
6	0	0	0	0	448
7	0	0	0	0	437
8	0	0	0	0	457
9	0	0	0	0	499
10	0	0	0	0	452
11	0	0	0	0	398
12	0	0	0	0	416
13	0	0	0	0	453
14	0	0	0	0	493
15	0	0	0	0	522
0	0	0	0	0	524
1	0	0	0	0	538
2	0	0	0	0	525
3	0	0	0	0	533
4	0	0	0	0	544
5	0	0	0	0	487
6	0	0	0	0	493
7	0	0	0	0	437
8	0	0	0	0	519
9	0	0	0	0	460
10	0	0	0	0	474
11	0	0	0	0	528
12	0	0	0	0	564
13	0	0	0	0	532
14	0	0	0	0	554
15	0	0	0	0	527
0	0	0	0	0	513
1	0	0	0	0	552
2	0	0	0	0	469
3	0	0	0	0	464
4	0	0	0	0	495
5	0	0	0	0	456
6	0	0	0	0	470
7	0	0	0	0	523
8	0	0	0	0	483
9	0	0	0	0	482
10	0	0	0	0	476
11	0	0	0	0	458
12	0	0	0	0	478
13	0	0	0	0	478
14	0	0	0	0	587
15	0	0	0	0	856
0	0	0	0	0	1022
1	0	0	0	0	542
2	0	0	0	0	292
3	0	0	0	0	365
4	0	0	0	0	515
5	0	0	0	0	377
6	0	0	0	0	407
7	0	0	0	0	431
8	0	0	0	0	475
9	0	0	0	0	508
10	0	0	0	0	496
11	0	0	0	0	568
12	0	0	0	0	478
13	0	0	0	0	499
14	0	0	0	0	523
15	0	0	0	0	511
0	0	0	0	0	530
1	0	0	0	0	543
2	0	0	0	0	538
3	0	0	0	0	512
4	0	0	0	0	543
5	0	0	0	0	540
6	0	0	0	0	550
7	0	0	0	0	544
8	0	0	0	0	530
9	0	0	0	0	492
10	0	0	0	0	472
11	0	0	0	0	518
12	0	0	0	0	395
13	0	0	0	0	451
14	0	0	0	0	467
15	0	0	0	0	492
0	0	0	0	0	506
1	0	0	0	0	558
2	0	0	0	0	559
3	0	0	0	0	512
4	0	0	0	0	518
5	0	0	0	0	413
6	0	0	0	0	455
7	0	0	0	0	482
8	0	0	0	0	485
9	0	0	0	0	519
10	0	0	0	0	520
11	0	0	0	0	511
12	0	0	0	0	595
13	0	0	0	0	490
14	0	0	0	0	536
15	0	0	0	0	494
0	0	0	0	0	530
1	0	0	0	0	542
2	0	0	0	0	491
3	0	0	0	0	518
4	0	0	0	0	520
5	0	0	0	0	602
6	0	0	0	0	581
7	0	0	0	0	540
8	0	0	0	0	508
9	0	0	0	0	432
10	0	0	0	0	524
11	0	0	0	0	483
12	0	0	0	0	483
13	0	0	0	0	562
14	0	0	0	0	459
15	0	0	0	0	459
0	0	0	0	0	523
1	0	0	0	0	490
2	0	0	0	0	464
3	0	0	0	0	477
4	0	0	0	0	519
5	0	0	0	0	640
6	0	0	0	0	944
7	0	0	0	0	993
8	0	0	0	0	445
9	0	0	0	0	285
10	0	0	0	0	403
11	0	0	0	0	459
12	0	0	0	0	443
13	0	0	0	0	440
14	0	0	0	0	475
15	0	0	0	0	496
0	0	0	0	0	552
1	0	0	0	0	534
2	0	0	0	0	481
3	0	0	0	0	465
4	0	0	0	0	470
5	0	0	0	0	490
6	0	0	0	0	502
7	0	0	0	0	500
8	0	0	0	0	612
9	0	0	0	0	538
10	0	0	0	0	536
11	0	0	0	0	416
12	0	0	0	0	515
13	0	0	0	0	453
14	0	0	0	0	492
15	0	0	0	0	569
0	0	0	0	0	550
1	0	0	0	0	539
2	0	0	0	0	489
3	0	0	0	0	483
4	0	0	0	0	511
5	0	0	0	0	506
6	0	0	0	0	588
7	0	0	0	0	424
8	0	0	0	0	428
9	0	0	0	0	387
10	0	0	0	0	431
11	0	0	0	0	442
12	0	0	0	0	487
13	0	0	0	0	436
14	0	0	0	0	531
15	0	0	0	0	431
0	0	0	0	0	411
1	0	0	0	0	452
2	0	0	0	0	418
3	0	0	0	0	444
4	0	0	0	0	344
5	0	0	0	0	346
6	0	0	0	0	394
7	0	0	0	0	419
8	0	0	0	0	435
9	0	0	0	0	449
10	0	0	0	0	438
11	0	0	0	0	421
12	0	0	0	0	413
13	0	0	0	0	419
14	0	0	0	0	420
15	0	0	0	0	469
0	0	0	0	0	478
1	0	0	0	0	530
2	0	0	0	0	436
3	0	0	0	0	496
4	0	0	0	0	532
5	0	0	0	0	544
6	0	0	0	0	524
7	0	0	0	0	466
8	0	0	0	0	439
9	0	0	0	0	492
10	0	0	0	0	486
11	0	0	0	0	486
12	0	0	0	0	561
13	0	0	0	0	814
14	0	0	0	0	1022
15	0	0	0	0	653
0	0	0	0	0	289
1	0	0	0	0	308
2	0	0	0	0	464
3	0	0	0	0	472
4	0	0	0	0	500
5	0	0	0	0	517
6	0	0	0	0	509
7	0	0	0	0	527
8	0	0	0	0	539
9	0	0	0	0	519
10	0	0	0	0	514
11	0	0	0	0	493
12	0	0	0	0	522
13	0	0	0	0	510
14	0	0	0	0	535
15	0	0	0	0	578
0	0	0	0	0	556
1	0	0	0	0	573
2	0	0	0	0	590
3	0	0	0	0	549
4	0	0	0	0	548
5	0	0	0	0	574
6	0	0	0	0	566
7	0	0	0	0	573
8	0	0	0	0	569
9	0	0	0	0	632
10	0	0	0	0	620
11	0	0	0	0	571
12	0	0	0	0	544
13	0	0	0	0	537
14	0	0	0	0	455
15	0	0	0	0	507
0	0	0	0	0	409
1	0	0	0	0	427
2	0	0	0	0	319
3	0	0	0	0	420
4	0	0	0	0	417
5	0	0	0	0	430
6	0	0	0	0	498
7	0	0	0	0	511
8	0	0	0	0	472
9	0	0	0	0	480
10	0	0	0	0	483
11	0	0	0	0	493
12	0	0	0	0	508
13	0	0	0	0	530
14	0	0	0	0	512
15	0	0	0	0	479
0	0	0	0	0	542
1	0	0	0	0	592
2	0	0	0	0	583
3	0	0	0	0	630
4	0	0	0	0	661
5	0	0	0	0	715
6	0	0	0	0	634
7	0	0	0	0	659
8	0	0	0	0	576
9	0	0	0	0	527
10	0	0	0	0	512
11	0	0	0	0	492
12	0	0	0	0	478
13	0	0	0	0	476
14	0	0	0	0	463
15	0	0	0	0	480
0	0	0	0	0	527
1	0	0	0	0	459
2	0	0	0	0	447
3	0	0	0	0	489
4	0	0	0	0	613
5	0	0	0	0	859
6	0	0	0	0	990
7	0	0	0	0	415
8	0	0	0	0	262
9	0	0	0	0	310
10	0	0	0	0	415
11	0	0	0	0	425
12	0	0	0	0	455
13	0	0	0	0	502
14	0	0	0	0	505
15	0	0	0	0	487
0	0	0	0	0	477
1	0	0	0	0	395
2	0	0	0	0	462
3	0	0	0	0	412
4	0	0	0	0	367
5	0	0	0	0	492
6	0	0	0	0	542
7	0	0	0	0	514
8	0	0	0	0	542
9	0	0	0	0	546
10	0	0	0	0	493
11	0	0	0	0	539
12	0	0	0	0	554
13	0	0	0	0	512
14	0	0	0	0	528
15	0	0	0	0	510
0	0	0	0	0	489
1	0	0	0	0	502
2	0	0	0	0	495
3	0	0	0	0	511
4	0	0	0	0	474
5	0	0	0	0	459
6	0	0	0	0	471
7	0	0	0	0	464
8	0	0	0	0	467
9	0	0	0	0	399
10	0	0	0	0	487
11	0	0	0	0	394
12	0	0	0	0	439
13	0	0	0	0	473
14	0	0	0	0	490
15	0	0	0	0	500
0	0	0	0	0	499
1	0	0	0	0	521
2	0	0	0	0	504
3	0	0	0	0	484
4	0	0	0	0	463
5	0	0	0	0	486
6	0	0	0	0	452
7	0	0	0	0	423
8	0	0	0	0	318
9	0	0	0	0	400
10	0	0	0	0	547
11	0	0	0	0	607
12	0	0	0	0	595
13	0	0	0	0	638
14	0	0	0	0	647
15	0	0	0	0	574
0	0	0	0	0	558
1	0	0	0	0	573
2	0	0	0	0	596
3	0	0	0	0	571
4	0	0	0	0	532
5	0	0	0	0	482
6	0	0	0	0	481
7	0	0	0	0	502
8	0	0	0	0	512
9	0	0	0	0	561
10	0	0	0	0	554
11	0	0	0	0	592
12	0	0	0	0	663
13	0	0	0	0	812
14	0	0	0	0	994
15	0	0	0	0	547
0	0	0	0	0	297
1	0	0	0	0	336
2	0	0	0	0	460
3	0	0	0	0	438
4	0	0	0	0	477
5	0	0	0	0	427
6	0	0	0	0	456
7	0	0	0	0	502
8	0	0	0	0	523
9	0	0	0	0	469
10	0	0	0	0	450
11	0	0	0	0	536
12	0	0	0	0	522
13	0	0	0	0	523
14	0	0	0	0	535
15	0	0	0	0	550
0	0	0	0	0	504
1	0	0	0	0	488
2	0	0	0	0	503
3	0	0	0	0	517
4	0	0	0	0	534
5	0	0	0	0	548
6	0	0	0	0	536
7	0	0	0	0	534
8	0	0	0	0	540
9	0	0	0	0	548
10	0	0	0	0	523
11	0	0	0	0	539
12	0	0	0	0	592
13	0	0	0	0	491
14	0	0	0	0	428
15	0	0	0	0	487
0	0	0	0	0	536
1	0	0	0	0	551
2	0	0	0	0	527
3	0	0	0	0	518
4	0	0	0	0	533
5	0	0	0	0	514
6	0	0	0	0	523
7	0	0	0	0	498
8	0	0	0	0	576
9	0	0	0	0	481
10	0	0	0	0	419
11	0	0	0	0	471
12	0	0	0	0	500
13	0	0	0	0	474
14	0	0	0	0	523
15	0	0	0	0	493
0	0	0	0	0	505
1	0	0	0	0	497
2	0	0	0	0	462
3	0	0	0	0	481
4	0	0	0	0	578
5	0	0	0	0	494
6	0	0	0	0	525
7	0	0	0	0	468
8	0	0	0	0	531
9	0	0	0	0	452
10	0	0	0	0	479
11	0	0	0	0	463
12	0	0	0	0	459
13	0	0	0	0	491
14	0	0	0	0	465
15	0	0	0	0	501
0	0	0	0	0	480
1	0	0	0	0	456
2	0	0	0	0	431
3	0	0	0	0	440
4	0	0	0	0	561
5	0	0	0	0	762
6	0	0	0	0	995
7	0	0	0	0	561
8	0	0	0	0	283
9	0	0	0	0	273
10	0	0	0	0	336
11	0	0	0	0	371
12	0	0	0	0	313
13	0	0	0	0	367
14	0	0	0	0	437
15	0	0	0	0	482
0	0	0	0	0	418
1	0	0	0	0	504
2	0	0	0	0	423
3	0	0	0	0	444
4	0	0	0	0	469
5	0	0	0	0	414
6	0	0	0	0	453
7	0	0	0	0	498
8	0	0	0	0	505
9	0	0	0	0	516
10	0	0	0	0	559
11	0	0	0	0	596
12	0	0	0	0	600
13	0	0	0	0	563
14	0	0	0	0	549
15	0	0	0	0	532
0	0	0	0	0	605
1	0	0	0	0	512
2	0	0	0	0	496
3	0	0	0	0	551
4	0	0	0	0	575
5	0	0	0	0	590
6	0	0	0	0	581
7	0	0	0	0	612
8	0	0	0	0	543
9	0	0	0	0	664
10	0	0	0	0	566
11	0	0	0	0	462
12	0	0	0	0	548
13	0	0	0	0	528
14	0	0	0	0	539
15	0	0	0	0	564
0	0	0	0	0	550
1	0	0	0	0	580
2	0	0	0	0	522
3	0	0	0	0	527
4	0	0	0	0	429
5	0	0	0	0	523
6	0	0	0	0	575
7	0	0	0	0	458
8	0	0	0	0	445
9	0	0	0	0	469
10	0	0	0	0	473
11	0	0	0	0	480
12	0	0	0	0	490
13	0	0	0	0	488
14	0	0	0	0	513
15	0	0	0	0	545
0	0	0	0	0	428
1	0	0	0	0	388
2	0	0	0	0	458
3	0	0	0	0	436
4	0	0	0	0	473
5	0	0	0	0	553
6	0	0	0	0	470
7	0	0	0	0	470
8	0	0	0	0	478
9	0	0	0	0	528
10	0	0	0	0	472
11	0	0	0	0	659
12	0	0	0	0	981
13	0	0	0	0	628
14	0	0	0	0	352
15	0	0	0	0	299
0	0	0	0	0	495
1	0	0	0	0	329
2	0	0	0	0	390
3	0	0	0	0	406
4	0	0	0	0	407
5	0	0	0	0	443
6	0	0	0	0	476
7	0	0	0	0	492
8	0	0	0	0	534
9	0	0	0	0	584
10	0	0	0	0	475
11	0	0	0	0	539
12	0	0	0	0	499
13	0	0	0	0	492
14	0	0	0	0	527
15	0	0	0	0	545
0	0	0	0	0	540
1	0	0	0	0	540
2	0	0	0	0	547
3	0	0	0	0	576
4	0	0	0	0	586
5	0	0	0	0	571
6	0	0	0	0	572
7	0	0	0	0	547
8	0	0	0	0	554
9	0	0	0	0	575
10	0	0	0	0	516
11	0	0	0	0	450
12	0	0	0	0	473
13	0	0	0	0	513
14	0	0	0	0	518
15	0	0	0	0	514
0	0	0	0	0	504
1	0	0	0	0	513
2	0	0	0	0	553
3	0	0	0	0	502
4	0	0	0	0	494
5	0	0	0	0	541
6	0	0	0	0	545
7	0	0	0	0	520
8	0	0	0	0	534
9	0	0	0	0	480
10	0	0	0	0	512
11	0	0	0	0	502
12	0	0	0	0	492
13	0	0	0	0	459
14	0	0	0	0	442
15	0	0	0	0	446
0	0	0	0	0	465
1	0	0	0	0	471
2	0	0	0	0	524
3	0	0	0	0	486
4	0	0	0	0	464
5	0	0	0	0	478
6	0	0	0	0	461
7	0	0	0	0	432
8	0	0	0	0	448
9	0	0	0	0	467
10	0	0	0	0	476
11	0	0	0	0	460
12	0	0	0	0	459
13	0	0	0	0	492
14	0	0	0	0	410
15	0	0	0	0	433
0	0	0	0	0	486
1	0	0	0	0	737
2	0	0	0	0	988
3	0	0	0	0	569
4	0	0	0	0	283
5	0	0	0	0	278
6	0	0	0	0	367
7	0	0	0	0	409
8	0	0	0	0	477
9	0	0	0	0	456
10	0	0	0	0	463
11	0	0	0	0	520
12	0	0	0	0	540
13	0	0	0	0	532
14	0	0	0	0	512
15	0	0	0	0	524
0	0	0	0	0	542
1	0	0	0	0	525
2	0	0	0	0	536
3	0	0	0	0	527
4	0	0	0	0	524
5	0	0	0	0	524
6	0	0	0	0	639
7	0	0	0	0	563
8	0	0	0	0	518
9	0	0	0	0	488
10	0	0	0	0	496
11	0	0	0	0	535
12	0	0	0	0	555
13	0	0	0	0	531
14	0	0	0	0	565
15	0	0	0	0	534
0	0	0	0	0	492
1	0	0	0	0	469
2	0	0	0	0	484
3	0	0	0	0	462
4	0	0	0	0	488
5	0	0	0	0	491
6	0	0	0	0	475
7	0	0	0	0	484
8	0	0	0	0	504
9	0	0	0	0	556
10	0	0	0	0	540
11	0	0	0	0	479
12	0	0	0	0	454
13	0	0	0	0	462
14	0	0	0	0	472
15	0	0	0	0	484
0	0	0	0	0	504
1	0	0	0	0	516
2	0	0	0	0	566
3	0	0	0	0	606
4	0	0	0	0	491
5	0	0	0	0	541
6	0	0	0	0	545
7	0	0	0	0	523
8	0	0	0	0	520
9	0	0	0	0	572
10	0	0	0	0	524
11	0	0	0	0	416
12	0	0	0	0	502
13	0	0	0	0	459
14	0	0	0	0	491
15	0	0	0	0	492
0	0	0	0	0	514
1	0	0	0	0	521
2	0	0	0	0	455
3	0	0	0	0	489
4	0	0	0	0	523
5	0	0	0	0	657
6	0	0	0	0	851
7	0	0	0	0	956
8	0	0	0	0	484
9	0	0	0	0	277
10	0	0	0	0	389
11	0	0	0	0	468
12	0	0	0	0	443
13	0	0	0	0	494
14	0	0	0	0	440
15	0	0	0	0	445
0	0	0	0	0	477
1	0	0	0	0	440
2	0	0	0	0	456
3	0	0	0	0	504
4	0	0	0	0	524
5	0	0	0	0	497
6	0	0	0	0	501
7	0	0	0	0	480
8	0	0	0	0	544
9	0	0	0	0	622
10	0	0	0	0	517
11	0	0	0	0	564
12	0	0	0	0	550
13	0	0	0	0	550
14	0	0	0	0	513
15	0	0	0	0	517
0	0	0	0	0	509
1	0	0	0	0	487
2	0	0	0	0	519
3	0	0	0	0	546
4	0	0	0	0	558
5	0	0	0	0	566
6	0	0	0	0	504
7	0	0	0	0	498
8	0	0	0	0	475
9	0	0	0	0	491
10	0	0	0	0	469
11	0	0	0	0	450
12	0	0	0	0	467
13	0	0	0	0	448
14	0	0	0	0	422
15	0	0	0	0	322
0	0	0	0	0	305
1	0	0	0	0	375
2	0	0	0	0	394
3	0	0	0	0	415
4	0	0	0	0	468
5	0	0	0	0	459
6	0	0	0	0	415
7	0	0	0	0	506
8	0	0	0	0	502
9	0	0	0	0	547
10	0	0	0	0	539
11	0	0	0	0	621
12	0	0	0	0	557
13	0	0	0	0	512
14	0	0	0	0	490
15	0	0	0	0	445
0	0	0	0	0	483
1	0	0	0	0	582
2	0	0	0	0	513
3	0	0	0	0	391
4	0	0	0	0	468
5	0	0	0	0	448
6	0	0	0	0	480
7	0	0	0	0	500
8	0	0	0	0	504
9	0	0	0	0	495
10	0	0	0	0	523
11	0	0	0	0	676
12	0	0	0	0	964
13	0	0	0	0	893
14	0	0	0	0	348
15	0	0	0	0	274
0	0	0	0	0	401
1	0	0	0	0	447
2	0	0	0	0	471
3	0	0	0	0	534
4	0	0	0	0	551
5	0	0	0	0	568
6	0	0	0	0	594
7	0	0	0	0	457
8	0	0	0	0	436
9	0	0	0	0	419
10	0	0	0	0	440
11	0	0	0	0	471
12	0	0	0	0	508
13	0	0	0	0	483
14	0	0	0	0	506
15	0	0	0	0	493
0	0	0	0	0	492
1	0	0	0	0	504
2	0	0	0	0	528
3	0	0	0	0	568
4	0	0	0	0	559
5	0	0	0	0	570
6	0	0	0	0	555
7	0	0	0	0	603
8	0	0	0	0	569
9	0	0	0	0	549
10	0	0	0	0	544
11	0	0	0	0	522
12	0	0	0	0	546
13	0	0	0	0	614
14	0	0	0	0	518
15	0	0	0	0	471
0	0	0	0	0	470
1	0	0	0	0	464
2	0	0	0	0	485
3	0	0	0	0	518
4	0	0	0	0	501
5	0	0	0	0	519
6	0	0	0	0	516
7	0	0	0	0	600
8	0	0	0	0	492
9	0	0	0	0	470
10	0	0	0	0	514
11	0	0	0	0	484
12	0	0	0	0	501
13	0	0	0	0	544
14	0	0	0	0	566
15	0	0	0	0	530
0	0	0	0	0	550
1	0	0	0	0	545
2	0	0	0	0	545
3	0	0	0	0	528
4	0	0	0	0	524
5	0	0	0	0	507
6	0	0	0	0	500
7	0	0	0	0	534
8	0	0	0	0	530
9	0	0	0	0	474
10	0	0	0	0	491
11	0	0	0	0	506
12	0	0	0	0	526
13	0	0	0	0	551
14	0	0	0	0	527
15	0	0	0	0	556
0	0	0	0	0	766
1	0	0	0	0	1022
2	0	0	0	0	758
3	0	0	0	0	472
4	0	0	0	0	327
5	0	0	0	0	405
6	0	0	0	0	447
7	0	0	0	0	488
8	0	0	0	0	522
9	0	0	0	0	460
10	0	0	0	0	472
11	0	0	0	0	531
12	0	0	0	0	476
13	0	0	0	0	512
14	0	0	0	0	486
15	0	0	0	0	512
0	0	0	0	0	496
1	0	0	0	0	535
2	0	0	0	0	551
3	0	0	0	0	569
4	0	0	0	0	562
5	0	0	0	0	556
6	0	0	0	0	567
7	0	0	0	0	514
8	0	0	0	0	504
9	0	0	0	0	509
10	0	0	0	0	479
11	0	0	0	0	486
12	0	0	0	0	513
13	0	0	0	0	477
14	0	0	0	0	446
15	0	0	0	0	473
0	0	0	0	0	456
1	0	0	0	0	416
2	0	0	0	0	400
3	0	0	0	0	344
4	0	0	0	0	344
5	0	0	0	0	347
6	0	0	0	0	357
7	0	0	0	0	382
8	0	0	0	0	430
9	0	0	0	0	452
10	0	0	0	0	440
11	0	0	0	0	480
12	0	0	0	0	478
13	0	0	0	0	422
14	0	0	0	0	440
15	0	0	0	0	455
0	0	0	0	0	506
1	0	0	0	0	497
2	0	0	0	0	544
3	0	0	0	0	543
4	0	0	0	0	543
5	0	0	0	0	556
6	0	0	0	0	548
7	0	0	0	0	520
8	0	0	0	0	497
9	0	0	0	0	483
10	0	0	0	0	515
11	0	0	0	0	506
12	0	0	0	0	476
13	0	0	0	0	528
14	0	0	0	0	486
15	0	0	0	0	477
0	0	0	0	0	483
1	0	0	0	0	568
2	0	0	0	0	508
3	0	0	0	0	537
4	0	0	0	0	803
5	0	0	0	0	1022
6	0	0	0	0	635
7	0	0	0	0	312
8	0	0	0	0	354
9	0	0	0	0	487
10	0	0	0	0	424
11	0	0	0	0	465
12	0	0	0	0	489
13	0	0	0	0	511
14	0	0	0	0	503
15	0	0	0	0	465
0	0	0	0	0	492
1	0	0	0	0	459
2	0	0	0	0	470
3	0	0	0	0	506
4	0	0	0	0	495
5	0	0	0	0	490
6	0	0	0	0	500
7	0	0	0	0	473
8	0	0	0	0	481
9	0	0	0	0	503
10	0	0	0	0	526
11	0	0	0	0	561
12	0	0	0	0	527
13	0	0	0	0	502
14	0	0	0	0	531
15	0	0	0	0	453
0	0	0	0	0	435
1	0	0	0	0	427
2	0	0	0	0	464
3	0	0	0	0	448
4	0	0	0	0	451
5	0	0	0	0	500
6	0	0	0	0	509
7	0	0	0	0	450
8	0	0	0	0	445
9	0	0	0	0	435
10	0	0	0	0	462
11	0	0	0	0	462
12	0	0	0	0	476
13	0	0	0	0	496
14	0	0	0	0	471
15	0	0	0	0	500
0	0	0	0	0	483
1	0	0	0	0	516
2	0	0	0	0	512
3	0	0	0	0	536
4	0	0	0	0	487
5	0	0	0	0	566
6	0	0	0	0	528
7	0	0	0	0	539
8	0	0	0	0	536
9	0	0	0	0	552
10	0	0	0	0	544
11	0	0	0	0	576
12	0	0	0	0	597
13	0	0	0	0	621
14	0	0	0	0	596
15	0	0	0	0	566
0	0	0	0	0	541
1	0	0	0	0	588
2	0	0	0	0	569
3	0	0	0	0	543
4	0	0	0	0	545
5	0	0	0	0	495
6	0	0	0	0	480
7	0	0	0	0	424
8	0	0	0	0	458
9	0	0	0	0	609
10	0	0	0	0	894
11	0	0	0	0	710
12	0	0	0	0	304
13	0	0	0	0	225
14	0	0	0	0	336
15	0	0	0	0	415
0	0	0	0	0	355
1	0	0	0	0	342
2	0	0	0	0	399
3	0	0	0	0	408
4	0	0	0	0	401
5	0	0	0	0	428
6	0	0	0	0	408
7	0	0	0	0	454
8	0	0	0	0	487
9	0	0	0	0	445
10	0	0	0	0	425
11	0	0	0	0	440
12	0	0	0	0	461
13	0	0	0	0	504
14	0	0	0	0	484
15	0	0	0	0	447
0	0	0	0	0	415
1	0	0	0	0	485
2	0	0	0	0	490
3	0	0	0	0	466
4	0	0	0	0	464
5	0	0	0	0	512
6	0	0	0	0	477
7	0	0	0	0	509
8	0	0	0	0	559
9	0	0	0	0	495
10	0	0	0	0	496
11	0	0	0	0	505
12	0	0	0	0	499
13	0	0	0	0	504
14	0	0	0	0	539
15	0	0	0	0	531
0	0	0	0	0	542
1	0	0	0	0	547
2	0	0	0	0	558
3	0	0	0	0	563
4	0	0	0	0	539
5	0	0	0	0	570
6	0	0	0	0	533
7	0	0	0	0	511
8	0	0	0	0	550
9	0	0	0	0	510
10	0	0	0	0	584
11	0	0	0	0	552
12	0	0	0	0	654
13	0	0	0	0	617
14	0	0	0	0	523
15	0	0	0	0	563
0	0	0	0	0	576
1	0	0	0	0	567
2	0	0	0	0	589
3	0	0	0	0	560
4	0	0	0	0	503
5	0	0	0	0	553
6	0	0	0	0	502
7	0	0	0	0	465
8	0	0	0	0	478
9	0	0	0	0	474
10	0	0	0	0	491
11	0	0	0	0	528
12	0	0	0	0	549
13	0	0	0	0	614
14	0	0	0	0	799
15	0	0	0	0	1022
0	0	0	0	0	705
1	0	0	0	0	409
2	0	0	0	0	305
3	0	0	0	0	309
4	0	0	0	0	330
5	0	0	0	0	352
6	0	0	0	0	380
7	0	0	0	0	404
8	0	0	0	0	434
9	0	0	0	0	431
10	0	0	0	0	498
11	0	0	0	0	504
12	0	0	0	0	478
13	0	0	0	0	488
14	0	0	0	0	524
15	0	0	0	0	537
0	0	0	0	0	501
1	0	0	0	0	500
2	0	0	0	0	567
3	0	0	0	0	584
4	0	0	0	0	664
5	0	0	0	0	615
6	0	0	0	0	473
7	0	0	0	0	499
8	0	0	0	0	571
9	0	0	0	0	581
10	0	0	0	0	611
11	0	0	0	0	566
12	0	0	0	0	593
13	0	0	0	0	555
14	0	0	0	0	540
15	0	0	0	0	416
0	0	0	0	0	414
1	0	0	0	0	427
2	0	0	0	0	465
3	0	0	0	0	533
4	0	0	0	0	560
5	0	0	0	0	571
6	0	0	0	0	523
7	0	0	0	0	543
8	0	0	0	0	497
9	0	0	0	0	476
10	0	0	0	0	477
11	0	0	0	0	460
12	0	0	0	0	450
13	0	0	0	0	507
14	0	0	0	0	467
15	0	0	0	0	444
0	0	0	0	0	498
1	0	0	0	0	494
2	0	0	0	0	469
3	0	0	0	0	520
4	0	0	0	0	440
5	0	0	0	0	381
6	0	0	0	0	459
7	0	0	0	0	460
8	0	0	0	0	485
9	0	0	0	0	467
10	0	0	0	0	488
11	0	0	0	0	515
12	0	0	0	0	409
13	0	0	0	0	512
14	0	0	0	0	446
15	0	0	0	0	426
0	0	0	0	0	474
1	0	0	0	0	457
2	0	0	0	0	351
3	0	0	0	0	433
4	0	0	0	0	638
5	0	0	0	0	894
6	0	0	0	0	536
7	0	0	0	0	256
8	0	0	0	0	268
9	0	0	0	0	419
10	0	0	0	0	431
11	0	0	0	0	465
12	0	0	0	0	478
13	0	0	0	0	583
14	0	0	0	0	579
15	0	0	0	0	579
0	0	0	0	0	555
1	0	0	0	0	458
2	0	0	0	0	499
3	0	0	0	0	503
4	0	0	0	0	518
5	0	0	0	0	517
6	0	0	0	0	556
7	0	0	0	0	551
8	0	0	0	0	551
9	0	0	0	0	591
10	0	0	0	0	580
11	0	0	0	0	572
12	0	0	0	0	569
13	0	0	0	0	563
14	0	0	0	0	586
15	0	0	0	0	559
0	0	0	0	0	530
1	0	0	0	0	587
2	0	0	0	0	546
3	0	0	0	0	478
4	0	0	0	0	530
5	0	0	0	0	463
6	0	0	0	0	443
7	0	0	0	0	403
8	0	0	0	0	476
9	0	0	0	0	521
10	0	0	0	0	526
11	0	0	0	0	542
12	0	0	0	0	498
13	0	0	0	0	479
14	0	0	0	0	512
15	0	0	0	0	537
0	0	0	0	0	525
1	0	0	0	0	502
2	0	0	0	0	484
3	0	0	0	0	496
4	0	0	0	0	508
5	0	0	0	0	505
6	0	0	0	0	496
7	0	0	0	0	508
8	0	0	0	0	529
9	0	0	0	0	513
10	0	0	0	0	569
11	0	0	0	0	535
12	0	0	0	0	563
13	0	0	0	0	542
14	0	0	0	0	504
15	0	0	0	0	479
0	0	0	0	0	415
1	0	0	0	0	426
2	0	0	0	0	486
3	0	0	0	0	480
4	0	0	0	0	419
5	0	0	0	0	506
6	0	0	0	0	481
7	0	0	0	0	442
8	0	0	0	0	529
9	0	0	0	0	466
10	0	0	0	0	483
11	0	0	0	0	619
12	0	0	0	0	940
13	0	0	0	0	769
14	0	0	0	0	376
15	0	0	0	0	320
0	0	0	0	0	425
1	0	0	0	0	463
2	0	0	0	0	478
3	0	0	0	0	455
4	0	0	0	0	471
5	0	0	0	0	492
6	0	0	0	0	511
7	0	0	0	0	515
8	0	0	0	0	495
9	0	0	0	0	519
10	0	0	0	0	501
11	0	0	0	0	555
12	0	0	0	0	560
13	0	0	0	0	571
14	0	0	0	0	559
15	0	0	0	0	551
0	0	0	0	0	506
1	0	0	0	0	529
2	0	0	0	0	612
3	0	0	0	0	604
4	0	0	0	0	592
5	0	0	0	0	631
6	0	0	0	0	548
7	0	0	0	0	530
8	0	0	0	0	510
9	0	0	0	0	480
10	0	0	0	0	447
11	0	0	0	0	526
12	0	0	0	0	507
13	0	0	0	0	415
14	0	0	0	0	305
15	0	0	0	0	344
0	0	0	0	0	418
1	0	0	0	0	374
2	0	0	0	0	501
3	0	0	0	0	542
4	0	0	0	0	573
5	0	0	0	0	419
6	0	0	0	0	411
7	0	0	0	0	455
8	0	0	0	0	477
9	0	0	0	0	508
10	0	0	0	0	546
11	0	0	0	0	572
12	0	0	0	0	549
13	0	0	0	0	463
14	0	0	0	0	470
15	0	0	0	0	424
0	0	0	0	0	490
1	0	0	0	0	508
2	0	0	0	0	531
3	0	0	0	0	493
4	0	0	0	0	528
5	0	0	0	0	449
6	0	0	0	0	460
7	0	0	0	0	533
8	0	0	0	0	476
9	0	0	0	0	480
10	0	0	0	0	487
11	0	0	0	0	514
12	0	0	0	0	468
13	0	0	0	0	432
14	0	0	0	0	524
15	0	0	0	0	523
0	0	0	0	0	599
1	0	0	0	0	801
2	0	0	0	0	1022
3	0	0	0	0	532
4	0	0	0	0	287
5	0	0	0	0	365
6	0	0	0	0	449
7	0	0	0	0	434
8	0	0	0	0	438
9	0	0	0	0	438
10	0	0	0	0	470
11	0	0	0	0	497
12	0	0	0	0	497
13	0	0	0	0	465
14	0	0	0	0	507
15	0	0	0	0	551
0	0	0	0	0	450
1	0	0	0	0	470
2	0	0	0	0	509
3	0	0	0	0	491
4	0	0	0	0	508
5	0	0	0	0	484
6	0	0	0	0	491
7	0	0	0	0	483
8	0	0	0	0	538
9	0	0	0	0	509
10	0	0	0	0	481
11	0	0	0	0	491
12	0	0	0	0	473
13	0	0	0	0	503
14	0	0	0	0	490
15	0	0	0	0	445
0	0	0	0	0	471
1	0	0	0	0	506
2	0	0	0	0	454
3	0	0	0	0	478
4	0	0	0	0	475
5	0	0	0	0	485
6	0	0	0	0	513
7	0	0	0	0	484
8	0	0	0	0	510
9	0	0	0	0	521
10	0	0	0	0	604
11	0	0	0	0	508
12	0	0	0	0	497
13	0	0	0	0	483
14	0	0	0	0	511
15	0	0	0	0	532
0	0	0	0	0	535
1	0	0	0	0	546
2	0	0	0	0	467
3	0	0	0	0	442
4	0	0	0	0	513
5	0	0	0	0	517
6	0	0	0	0	527
7	0	0	0	0	563
8	0	0	0	0	544
9	0	0	0	0	523
10	0	0	0	0	510
11	0	0	0	0	510
12	0	0	0	0	496
13	0	0	0	0	436
14	0	0	0	0	461
15	0	0	0	0	487
0	0	0	0	0	492
1	0	0	0	0	502
2	0	0	0	0	499
3	0	0	0	0	496
4	0	0	0	0	498
5	0	0	0	0	481
6	0	0	0	0	517
7	0	0	0	0	671
8	0	0	0	0	912
9	0	0	0	0	941
10	0	0	0	0	463
11	0	0	0	0	311
12	0	0	0	0	418
13	0	0	0	0	444
14	0	0	0	0	504
15	0	0	0	0	547
0	0	0	0	0	454
1	0	0	0	0	462
2	0	0	0	0	562
3	0	0	0	0	619
4	0	0	0	0	551
5	0	0	0	0	499
6	0	0	0	0	486
7	0	0	0	0	523
8	0	0	0	0	565
9	0	0	0	0	524
10	0	0	0	0	504
11	0	0	0	0	512
12	0	0	0	0	510
13	0	0	0	0	504
14	0	0	0	0	513
15	0	0	0	0	528
0	0	0	0	0	531
1	0	0	0	0	547
2	0	0	0	0	562
3	0	0	0	0	536
4	0	0	0	0	547
5	0	0	0	0	459
6	0	0	0	0	462
7	0	0	0	0	424
8	0	0	0	0	382
9	0	0	0	0	398
10	0	0	0	0	348
11	0	0	0	0	253
12	0	0	0	0	376
13	0	0	0	0	452
14	0	0	0	0	405
15	0	0	0	0	424
0	0	0	0	0	520
1	0	0	0	0	511
2	0	0	0	0	504
3	0	0	0	0	457
4	0	0	0	0	415
5	0	0	0	0	471
6	0	0	0	0	519
7	0	0	0	0	536
8	0	0	0	0	482
9	0	0	0	0	500
10	0	0	0	0	501
11	0	0	0	0	545
12	0	0	0	0	558
13	0	0	0	0	545
14	0	0	0	0	559
15	0	0	0	0	584
0	0	0	0	0	569
1	0	0	0	0	543
2	0	0	0	0	522
3	0	0	0	0	491
4	0	0	0	0	495
5	0	0	0	0	490
6	0	0	0	0	519
7	0	0	0	0	501
8	0	0	0	0	521
9	0	0	0	0	545
10	0	0	0	0	582
11	0	0	0	0	652
12	0	0	0	0	724
13	0	0	0	0	548
14	0	0	0	0	465
15	0	0	0	0	620
0	0	0	0	0	926
1	0	0	0	0	830
2	0	0	0	0	431
3	0	0	0	0	398
4	0	0	0	0	528
5	0	0	0	0	496
6	0	0	0	0	427
7	0	0	0	0	378
8	0	0	0	0	443
9	0	0	0	0	448
10	0	0	0	0	476
11	0	0	0	0	510
12	0	0	0	0	516
13	0	0	0	0	518
14	0	0	0	0	513
15	0	0	0	0	471
0	0	0	0	0	440
1	0	0	0	0	437
2	0	0	0	0	467
3	0	0	0	0	414
4	0	0	0	0	429
5	0	0	0	0	463
6	0	0	0	0	551
7	0	0	0	0	559
8	0	0	0	0	613
9	0	0	0	0	577
10	0	0	0	0	492
11	0	0	0	0	478
12	0	0	0	0	473
13	0	0	0	0	451
14	0	0	0	0	487
15	0	0	0	0	499
0	0	0	0	0	497
1	0	0	0	0	511
2	0	0	0	0	495
3	0	0	0	0	491
4	0	0	0	0	495
5	0	0	0	0	502
6	0	0	0	0	534
7	0	0	0	0	510
8	0	0	0	0	492
9	0	0	0	0	504
10	0	0	0	0	511
11	0	0	0	0	534
12	0	0	0	0	541
13	0	0	0	0	552
14	0	0	0	0	566
15	0	0	0	0	551
0	0	0	0	0	549
1	0	0	0	0	494
2	0	0	0	0	569
3	0	0	0	0	591
4	0	0	0	0	598
5	0	0	0	0	639
6	0	0	0	0	653
7	0	0	0	0	622
8	0	0	0	0	562
9	0	0	0	0	522
10	0	0	0	0	476
11	0	0	0	0	470
12	0	0	0	0	463
13	0	0	0	0	483
14	0	0	0	0	467
15	0	0	0	0	451
0	0	0	0	0	478
1	0	0	0	0	508
2	0	0	0	0	479
3	0	0	0	0	495
4	0	0	0	0	657
5	0	0	0	0	916
6	0	0	0	0	741
7	0	0	0	0	378
8	0	0	0	0	231
9	0	0	0	0	245
10	0	0	0	0	283
11	0	0	0	0	340
12	0	0	0	0	346
13	0	0	0	0	378
14	0	0	0	0	414
15	0	0	0	0	393
0	0	0	0	0	410
1	0	0	0	0	421
2	0	0	0	0	508
3	0	0	0	0	452
4	0	0	0	0	518
5	0	0	0	0	478
6	0	0	0	0	488
7	0	0	0	0	506
8	0	0	0	0	507
9	0	0	0	0	507
10	0	0	0	0	534
11	0	0	0	0	541
12	0	0	0	0	526
13	0	0	0	0	514
14	0	0	0	0	511
15	0	0	0	0	489
0	0	0	0	0	483
1	0	0	0	0	489
2	0	0	0	0	496
3	0	0	0	0	493
4	0	0	0	0	481
5	0	0	0	0	466
6	0	0	0	0	463
7	0	0	0	0	495
8	0	0	0	0	483
9	0	0	0	0	507
10	0	0	0	0	571
11	0	0	0	0	486
12	0	0	0	0	504
13	0	0	0	0	580
14	0	0	0	0	537
15	0	0	0	0	537
0	0	0	0	0	512
1	0	0	0	0	569
2	0	0	0	0	510
3	0	0	0	0	541
4	0	0	0	0	513
5	0	0	0	0	517
6	0	0	0	0	534
7	0	0	0	0	556
8	0	0	0	0	527
9	0	0	0	0	508
10	0	0	0	0	560
11	0	0	0	0	513
12	0	0	0	0	563
13	0	0	0	0	532
14	0	0	0	0	473
15	0	0	0	0	469
0	0	0	0	0	452
1	0	0	0	0	459
2	0	0	0	0	471
3	0	0	0	0	513
4	0	0	0	0	547
5	0	0	0	0	519
6	0	0	0	0	499
7	0	0	0	0	558
8	0	0	0	0	510
9	0	0	0	0	476
10	0	0	0	0	499
11	0	0	0	0	592
12	0	0	0	0	722
13	0	0	0	0	992
14	0	0	0	0	711
15	0	0	0	0	347
0	0	0	0	0	345
1	0	0	0	0	468
2	0	0	0	0	404
3	0	0	0	0	416
4	0	0	0	0	431
5	0	0	0	0	469
6	0	0	0	0	470
7	0	0	0	0	493
8	0	0	0	0	491
9	0	0	0	0	491
10	0	0	0	0	498
11	0	0	0	0	486
12	0	0	0	0	513
13	0	0	0	0	542
14	0	0	0	0	524
15	0	0	0	0	506
0	0	0	0	0	504
1	0	0	0	0	531
2	0	0	0	0	523
3	0	0	0	0	521
4	0	0	0	0	515
5	0	0	0	0	508
6	0	0	0	0	514
7	0	0	0	0	578
8	0	0	0	0	496
9	0	0	0	0	478
10	0	0	0	0	441
11	0	0	0	0	476
12	0	0	0	0	509
13	0	0	0	0	545
14	0	0	0	0	619
15	0	0	0	0	594
0	0	0	0	0	507
1	0	0	0	0	461
2	0	0	0	0	457
3	0	0	0	0	453
4	0	0	0	0	469
5	0	0	0	0	499
6	0	0	0	0	452
7	0	0	0	0	418
8	0	0	0	0	404
9	0	0	0	0	406
10	0	0	0	0	451
11	0	0	0	0	483
12	0	0	0	0	485
13	0	0	0	0	466
14	0	0	0	0	505
15	0	0	0	0	437
0	0	0	0	0	408
1	0	0	0	0	444
2	0	0	0	0	444
3	0	0	0	0	443
4	0	0	0	0	485
5	0	0	0	0	470
6	0	0	0	0	480
7	0	0	0	0	478
8	0	0	0	0	555
9	0	0	0	0	521
10	0	0	0	0	475
11	0	0	0	0	491
12	0	0	0	0	540
13	0	0	0	0	499
14	0	0	0	0	454
15	0	0	0	0	511
0	0	0	0	0	501
1	0	0	0	0	560
2	0	0	0	0	524
3	0	0	0	0	564
4	0	0	0	0	675
5	0	0	0	0	939
6	0	0	0	0	929
7	0	0	0	0	410
8	0	0	0	0	247
9	0	0	0	0	375
10	0	0	0	0	484
11	0	0	0	0	452
12	0	0	0	0	469
13	0	0	0	0	481
14	0	0	0	0	487
15	0	0	0	0	508
0	0	0	0	0	516
1	0	0	0	0	512
2	0	0	0	0	545
3	0	0	0	0	542
4	0	0	0	0	562
5	0	0	0	0	497
6	0	0	0	0	562
7	0	0	0	0	566
8	0	0	0	0	661
9	0	0	0	0	679
10	0	0	0	0	617
11	0	0	0	0	533
12	0	0	0	0	524
13	0	0	0	0	440
14	0	0	0	0	392
15	0	0	0	0	508
0	0	0	0	0	490
1	0	0	0	0	534
2	0	0	0	0	539
3	0	0	0	0	511
4	0	0	0	0	490
5	0	0	0	0	537
6	0	0	0	0	497
7	0	0	0	0	468
8	0	0	0	0	481
9	0	0	0	0	492
10	0	0	0	0	508
11	0	0	0	0	516
12	0	0	0	0	507
13	0	0	0	0	522
14	0	0	0	0	543
15	0	0	0	0	549
0	0	0	0	0	537
1	0	0	0	0	486
2	0	0	0	0	460
3	0	0	0	0	423
4	0	0	0	0	394
5	0	0	0	0	508
6	0	0	0	0	571
7	0	0	0	0	555
8	0	0	0	0	445
9	0	0	0	0	472
10	0	0	0	0	451
11	0	0	0	0	353
12	0	0	0	0	363
13	0	0	0	0	405
14	0	0	0	0	402
15	0	0	0	0	452
0	0	0	0	0	430
1	0	0	0	0	493
2	0	0	0	0	515
3	0	0	0	0	458
4	0	0	0	0	510
5	0	0	0	0	486
6	0	0	0	0	521
7	0	0	0	0	506
8	0	0	0	0	497
9	0	0	0	0	656
10	0	0	0	0	942
11	0	0	0	0	987
12	0	0	0	0	513
13	0	0	0	0	278
14	0	0	0	0	412
15	0	0	0	0	458
0	0	0	0	0	455
1	0	0	0	0	464
2	0	0	0	0	464
3	0	0	0	0	501
4	0	0	0	0	476
5	0	0	0	0	464
6	0	0	0	0	539
7	0	0	0	0	479
8	0	0	0	0	553
9	0	0	0	0	554
10	0	0	0	0	542
11	0	0	0	0	542
12	0	0	0	0	540
13	0	0	0	0	524
14	0	0	0	0	509
15	0	0	0	0	572
0	0	0	0	0	590
1	0	0	0	0	578
2	0	0	0	0	564
3	0	0	0	0	589
4	0	0	0	0	607
5	0	0	0	0	579
6	0	0	0	0	565
7	0	0	0	0	619
8	0	0	0	0	525
9	0	0	0	0	498
10	0	0	0	0	474
11	0	0	0	0	462
12	0	0	0	0	444
13	0	0	0	0	481
14	0	0	0	0	431
15	0	0	0	0	428
0	0	0	0	0	395
1	0	0	0	0	472
2	0	0	0	0	430
3	0	0	0	0	408
4	0	0	0	0	467
5	0	0	0	0	452
6	0	0	0	0	457
7	0	0	0	0	456
8	0	0	0	0	443
9	0	0	0	0	464
10	0	0	0	0	467
11	0	0	0	0	462
12	0	0	0	0	556
13	0	0	0	0	478
14	0	0	0	0	521
15	0	0	0	0	451
0	0	0	0	0	452
1	0	0	0	0	513
2	0	0	0	0	455
3	0	0	0	0	488
4	0	0	0	0	480
5	0	0	0	0	492
6	0	0	0	0	488
7	0	0	0	0	509
8	0	0	0	0	508
9	0	0	0	0	484
10	0	0	0	0	454
11	0	0	0	0	462
12	0	0	0	0	469
13	0	0	0	0	484
14	0	0	0	0	518
15	0	0	0	0	606
0	0	0	0	0	842
1	0	0	0	0	978
2	0	0	0	0	505
3	0	0	0	0	300
4	0	0	0	0	400
5	0	0	0	0	459
6	0	0	0	0	434
7	0	0	0	0	459
8	0	0	0	0	480
9	0	0	0	0	470
10	0	0	0	0	469
11	0	0	0	0	499
12	0	0	0	0	513
13	0	0	0	0	549
14	0	0	0	0	559
15	0	0	0	0	544
0	0	0	0	0	559
1	0	0	0	0	539
2	0	0	0	0	541
3	0	0	0	0	507
4	0	0	0	0	536
5	0	0	0	0	635
6	0	0	0	0	538
7	0	0	0	0	491
8	0	0	0	0	506
9	0	0	0	0	511
10	0	0	0	0	534
11	0	0	0	0	516
12	0	0	0	0	537
13	0	0	0	0	518
14	0	0	0	0	518
15	0	0	0	0	527
0	0	0	0	0	465
1	0	0	0	0	494
2	0	0	0	0	458
3	0	0	0	0	472
4	0	0	0	0	487
5	0	0	0	0	495
6	0	0	0	0	509
7	0	0	0	0	586
8	0	0	0	0	514
9	0	0	0	0	479
10	0	0	0	0	486
11	0	0	0	0	517
12	0	0	0	0	493
13	0	0	0	0	530
14	0	0	0	0	535
15	0	0	0	0	522
0	0	0	0	0	533
1	0	0	0	0	491
2	0	0	0	0	496
3	0	0	0	0	629
4	0	0	0	0	510
5	0	0	0	0	483
6	0	0	0	0	492
7	0	0	0	0	499
8	0	0	0	0	471
9	0	0	0	0	440
10	0	0	0	0	475
11	0	0	0	0	454
12	0	0	0	0	460
13	0	0	0	0	485
14	0	0	0	0	430
15	0	0	0	0	423
0	0	0	0	0	429
1	0	0	0	0	469
2	0	0	0	0	501
3	0	0	0	0	509
4	0	0	0	0	517
5	0	0	0	0	637
6	0	0	0	0	944
7	0	0	0	0	1006
8	0	0	0	0	501
9	0	0	0	0	231
10	0	0	0	0	340
11	0	0	0	0	505
12	0	0	0	0	507
13	0	0	0	0	468
14	0	0	0	0	452
15	0	0	0	0	453
0	0	0	0	0	516
1	0	0	0	0	525
2	0	0	0	0	540
3	0	0	0	0	630
4	0	0	0	0	556
5	0	0	0	0	558
6	0	0	0	0	566
7	0	0	0	0	589
8	0	0	0	0	656
9	0	0	0	0	633
10	0	0	0	0	555
11	0	0	0	0	561
12	0	0	0	0	505
13	0	0	0	0	490
14	0	0	0	0	492
15	0	0	0	0	465
0	0	0	0	0	474
1	0	0	0	0	496
2	0	0	0	0	490
3	0	0	0	0	481
4	0	0	0	0	498
5	0	0	0	0	492
6	0	0	0	0	465
7	0	0	0	0	470
8	0	0	0	0	460
9	0	0	0	0	481
10	0	0	0	0	486
11	0	0	0	0	415
12	0	0	0	0	265
13	0	0	0	0	242
14	0	0	0	0	308
15	0	0	0	0	352
0	0	0	0	0	473
1	0	0	0	0	575
2	0	0	0	0	588
3	0	0	0	0	542
4	0	0	0	0	494
5	0	0	0	0	328
6	0	0	0	0	404
7	0	0	0	0	505
8	0	0	0	0	518
9	0	0	0	0	563
10	0	0	0	0	602
11	0	0	0	0	529
12	0	0	0	0	474
13	0	0	0	0	447
14	0	0	0	0	488
15	0	0	0	0	483
0	0	0	0	0	508
1	0	0	0	0	537
2	0	0	0	0	533
3	0	0	0	0	447
4	0	0	0	0	514
5	0	0	0	0	533
6	0	0	0	0	533
7	0	0	0	0	577
8	0	0	0	0	588
9	0	0	0	0	625
10	0	0	0	0	871
11	0	0	0	0	1022
12	0	0	0	0	559
13	0	0	0	0	278
14	0	0	0	0	290
15	0	0	0	0	388
0	0	0	0	0	439
1	0	0	0	0	480
2	0	0	0	0	559
3	0	0	0	0	618
4	0	0	0	0	633
5	0	0	0	0	547
6	0	0	0	0	574
7	0	0	0	0	536
8	0	0	0	0	540
9	0	0	0	0	528
10	0	0	0	0	522
11	0	0	0	0	523
12	0	0	0	0	536
13	0	0	0	0	525
14	0	0	0	0	482
15	0	0	0	0	423
0	0	0	0	0	407
1	0	0	0	0	391
2	0	0	0	0	567
3	0	0	0	0	433
4	0	0	0	0	423
5	0	0	0	0	489
6	0	0	0	0	494
7	0	0	0	0	454
8	0	0	0	0	406
9	0	0	0	0	418
10	0	0	0	0	473
11	0	0	0	0	448
12	0	0	0	0	502
13	0	0	0	0	440
14	0	0	0	0	461
15	0	0	0	0	452
0	0	0	0	0	455
1	0	0	0	0	560
2	0	0	0	0	653
3	0	0	0	0	576
4	0	0	0	0	578
5	0	0	0	0	650
6	0	0	0	0	491
7	0	0	0	0	545
8	0	0	0	0	591
9	0	0	0	0	626
10	0	0	0	0	657
11	0	0	0	0	636
12	0	0	0	0	651
13	0	0	0	0	619
14	0	0	0	0	630
15	0	0	0	0	550
0	0	0	0	0	549
1	0	0	0	0	553
2	0	0	0	0	487
3	0	0	0	0	478
4	0	0	0	0	460
5	0	0	0	0	407
6	0	0	0	0	432
7	0	0	0	0	428
8	0	0	0	0	485
9	0	0	0	0	461
10	0	0	0	0	410
11	0	0	0	0	473
12	0	0	0	0	444
13	0	0	0	0	434
14	0	0	0	0	499
15	0	0	0	0	449
0	0	0	0	0	657
1	0	0	0	0	960
2	0	0	0	0	646
3	0	0	0	0	226
4	0	0	0	0	287
5	0	0	0	0	372
6	0	0	0	0	348
7	0	0	0	0	330
8	0	0	0	0	407
9	0	0	0	0	396
10	0	0	0	0	453
11	0	0	0	0	420
12	0	0	0	0	414
13	0	0	0	0	446
14	0	0	0	0	499
15	0	0	0	0	500
0	0	0	0	0	492
1	0	0	0	0	497
2	0	0	0	0	451
3	0	0	0	0	536
4	0	0	0	0	441
5	0	0	0	0	465
6	0	0	0	0	496
7	0	0	0	0	481
8	0	0	0	0	492
9	0	0	0	0	518
10	0	0	0	0	517
11	0	0	0	0	497
12	0	0	0	0	564
13	0	0	0	0	420
14	0	0	0	0	408
15	0	0	0	0	350
0	0	0	0	0	425
1	0	0	0	0	524
2	0	0	0	0	591
3	0	0	0	0	595
4	0	0	0	0	699
5	0	0	0	0	591
6	0	0	0	0	574
7	0	0	0	0	572
8	0	0	0	0	547
9	0	0	0	0	510
10	0	0	0	0	495
11	0	0	0	0	470
12	0	0	0	0	500
13	0	0	0	0	518
14	0	0	0	0	504
15	0	0	0	0	555
0	0	0	0	0	487
1	0	0	0	0	507
2	0	0	0	0	614
3	0	0	0	0	475
4	0	0	0	0	548
5	0	0	0	0	507
6	0	0	0	0	521
7	0	0	0	0	555
8	0	0	0	0	556
9	0	0	0	0	535
10	0	0	0	0	501
11	0	0	0	0	582
12	0	0	0	0	506
13	0	0	0	0	557
14	0	0	0	0	522
15	0	0	0	0	445
0	0	0	0	0	492
1	0	0	0	0	461
2	0	0	0	0	451
3	0	0	0	0	441
4	0	0	0	0	494
5	0	0	0	0	499
6	0	0	0	0	402
7	0	0	0	0	508
8	0	0	0	0	812
9	0	0	0	0	935
10	0	0	0	0	556
11	0	0	0	0	281
12	0	0	0	0	302
13	0	0	0	0	457
14	0	0	0	0	469
15	0	0	0	0	382
0	0	0	0	0	353
1	0	0	0	0	386
2	0	0	0	0	434
3	0	0	0	0	464
4	0	0	0	0	536
5	0	0	0	0	523
6	0	0	0	0	513
7	0	0	0	0	442
8	0	0	0	0	536
9	0	0	0	0	484
10	0	0	0	0	444
11	0	0	0	0	544
12	0	0	0	0	556
13	0	0	0	0	605
14	0	0	0	0	604
15	0	0	0	0	519
0	0	0	0	0	591
1	0	0	0	0	597
2	0	0	0	0	550
3	0	0	0	0	539
4	0	0	0	0	481
5	0	0	0	0	545
6	0	0	0	0	579
7	0	0	0	0	511
8	0	0	0	0	532
9	0	0	0	0	471
10	0	0	0	0	496
11	0	0	0	0	594
12	0	0	0	0	624
13	0	0	0	0	657
14	0	0	0	0	574
15	0	0	0	0	547
0	0	0	0	0	501
1	0	0	0	0	467
2	0	0	0	0	392
3	0	0	0	0	418
4	0	0	0	0	443
5	0	0	0	0	431
6	0	0	0	0	446
7	0	0	0	0	456
8	0	0	0	0	475
9	0	0	0	0	518
10	0	0	0	0	491
11	0	0	0	0	432
12	0	0	0	0	463
13	0	0	0	0	475
14	0	0	0	0	538
15	0	0	0	0	495
0	0	0	0	0	556
1	0	0	0	0	495
2	0	0	0	0	423
3	0	0	0	0	467
4	0	0	0	0	359
5	0	0	0	0	473
6	0	0	0	0	519
7	0	0	0	0	558
8	0	0	0	0	476
9	0	0	0	0	433
10	0	0	0	0	484
11	0	0	0	0	496
12	0	0	0	0	454
13	0	0	0	0	526
14	0	0	0	0	724
15	0	0	0	0	978
0	0	0	0	0	547
1	0	0	0	0	243
2	0	0	0	0	282
3	0	0	0	0	425
4	0	0	0	0	473
5	0	0	0	0	443
6	0	0	0	0	484
7	0	0	0	0	489
8	0	0	0	0	512
9	0	0	0	0	531
10	0	0	0	0	528
11	0	0	0	0	521
12	0	0	0	0	639
13	0	0	0	0	572
14	0	0	0	0	588
15	0	0	0	0	582
0	0	0	0	0	481
1	0	0	0	0	466
2	0	0	0	0	422
3	0	0	0	0	439
4	0	0	0	0	425
5	0	0	0	0	412
6	0	0	0	0	573
7	0	0	0	0	658
8	0	0	0	0	828
9	0	0	0	0	719
10	0	0	0	0	642
11	0	0	0	0	596
12	0	0	0	0	566
13	0	0	0	0	548
14	0	0	0	0	498
15	0	0	0	0	444
0	0	0	0	0	447
1	0	0	0	0	432
2	0	0	0	0	426
3	0	0	0	0	454
4	0	0	0	0	454
5	0	0	0	0	493
6	0	0	0	0	529
7	0	0	0	0	503
8	0	0	0	0	487
9	0	0	0	0	508
10	0	0	0	0	551
11	0	0	0	0	425
12	0	0	0	0	433
13	0	0	0	0	383
14	0	0	0	0	403
15	0	0	0	0	462
0	0	0	0	0	461
1	0	0	0	0	468
2	0	0	0	0	568
3	0	0	0	0	540
4	0	0	0	0	510
5	0	0	0	0	445
6	0	0	0	0	399
7	0	0	0	0	418
8	0	0	0	0	545
9	0	0	0	0	540
10	0	0	0	0	524
11	0	0	0	0	567
12	0	0	0	0	449
13	0	0	0	0	598
14	0	0	0	0	416
15	0	0	0	0	460
0	0	0	0	0	536
1	0	0	0	0	565
2	0	0	0	0	671
3	0	0	0	0	775
4	0	0	0	0	953
5	0	0	0	0	950
6	0	0	0	0	305
7	0	0	0	0	209
8	0	0	0	0	313
9	0	0	0	0	274
10	0	0	0	0	338
11	0	0	0	0	520
12	0	0	0	0	718
13	0	0	0	0	678
14	0	0	0	0	604
15	0	0	0	0	541
0	0	0	0	0	478
1	0	0	0	0	515
2	0	0	0	0	422
3	0	0	0	0	417
4	0	0	0	0	440
5	0	0	0	0	437
6	0	0	0	0	267
7	0	0	0	0	427
8	0	0	0	0	574
9	0	0	0	0	603
10	0	0	0	0	582
11	0	0	0	0	553
12	0	0	0	0	439
13	0	0	0	0	528
14	0	0	0	0	426
15	0	0	0	0	221
0	0	0	0	0	286
1	0	0	0	0	284
2	0	0	0	0	390
3	0	0	0	0	375
4	0	0	0	0	455
5	0	0	0	0	480
6	0	0	0	0	518
7	0	0	0	0	543
8	0	0	0	0	481
9	0	0	0	0	372
10	0	0	0	0	449
11	0	0	0	0	472
12	0	0	0	0	465
13	0	0	0	0	519
14	0	0	0	0	543
15	0	0	0	0	527
0	0	0	0	0	490
1	0	0	0	0	437
2	0	0	0	0	528
3	0	0	0	0	485
4	0	0	0	0	505
5	0	0	0	0	545
6	0	0	0	0	598
7	0	0	0	0	658
8	0	0	0	0	734
9	0	0	0	0	703
10	0	0	0	0	560
11	0	0	0	0	474
12	0	0	0	0	397
13	0	0	0	0	440
14	0	0	0	0	463
15	0	0	0	0	440
0	0	0	0	0	444
1	0	0	0	0	448
2	0	0	0	0	444
3	0	0	0	0	488
4	0	0	0	0	403
5	0	0	0	0	463
6	0	0	0	0	496
7	0	0	0	0	542
8	0	0	0	0	533
9	0	0	0	0	630
10	0	0	0	0	654
11	0	0	0	0	923
12	0	0	0	0	945
13	0	0	0	0	510
14	0	0	0	0	350
15	0	0	0	0	425
0	0	0	0	0	507
1	0	0	0	0	523
2	0	0	0	0	560
3	0	0	0	0	715
4	0	0	0	0	536
5	0	0	0	0	492
6	0	0	0	0	524
7	0	0	0	0	527
8	0	0	0	0	544
9	0	0	0	0	580
10	0	0	0	0	558
11	0	0	0	0	540
12	0	0	0	0	465
13	0	0	0	0	451
14	0	0	0	0	431
15	0	0	0	0	456
0	0	0	0	0	565
1	0	0	0	0	416
2	0	0	0	0	490
3	0	0	0	0	512
4	0	0	0	0	529
5	0	0	0	0	517
6	0	0	0	0	516
7	0	0	0	0	525
8	0	0	0	0	521
9	0	0	0	0	537
10	0	0	0	0	512
11	0	0	0	0	492
12	0	0	0	0	469
13	0	0	0	0	481
14	0	0	0	0	483
15	0	0	0	0	515
0	0	0	0	0	508
1	0	0	0	0	526
2	0	0	0	0	554
3	0	0	0	0	603
4	0	0	0	0	581
5	0	0	0	0	551
6	0	0	0	0	556
7	0	0	0	0	581
8	0	0	0	0	531
9	0	0	0	0	553
10	0	0	0	0	605
11	0	0	0	0	536
12	0	0	0	0	516
13	0	0	0	0	547
14	0	0	0	0	606
15	0	0	0	0	647
0	0	0	0	0	652
1	0	0	0	0	671
2	0	0	0	0	646
3	0	0	0	0	559
4	0	0	0	0	524
5	0	0	0	0	496
6	0	0	0	0	429
7	0	0	0	0	420
8	0	0	0	0	449
9	0	0	0	0	489
10	0	0	0	0	545
11	0	0	0	0	464
12	0	0	0	0	443
13	0	0	0	0	475
14	0	0	0	0	430
15	0	0	0	0	383
0	0	0	0	0	362
1	0	0	0	0	441
2	0	0	0	0	602
3	0	0	0	0	836
4	0	0	0	0	561
5	0	0	0	0	209
6	0	0	0	0	296
7	0	0	0	0	321
8	0	0	0	0	484
9	0	0	0	0	540
10	0	0	0	0	521
11	0	0	0	0	494
12	0	0	0	0	531
13	0	0	0	0	365
14	0	0	0	0	432
15	0	0	0	0	449
0	0	0	0	0	423
1	0	0	0	0	429
2	0	0	0	0	508
3	0	0	0	0	524
4	0	0	0	0	500
5	0	0	0	0	435
6	0	0	0	0	466
7	0	0	0	0	463
8	0	0	0	0	472
9	0	0	0	0	504
10	0	0	0	0	497
11	0	0	0	0	507
12	0	0	0	0	528
13	0	0	0	0	508
14	0	0	0	0	517
15	0	0	0	0	480
0	0	0	0	0	496
1	0	0	0	0	508
2	0	0	0	0	480
3	0	0	0	0	531
4	0	0	0	0	427
5	0	0	0	0	408
6	0	0	0	0	403
7	0	0	0	0	440
8	0	0	0	0	528
9	0	0	0	0	636
10	0	0	0	0	651
11	0	0	0	0	542
12	0	0	0	0	544
13	0	0	0	0	585
14	0	0	0	0	559
15	0	0	0	0	475
0	0	0	0	0	533
1	0	0	0	0	455
2	0	0	0	0	486
3	0	0	0	0	600
4	0	0	0	0	609
5	0	0	0	0	574
6	0	0	0	0	613
7	0	0	0	0	626
8	0	0	0	0	622
9	0	0	0	0	578
10	0	0	0	0	468
11	0	0	0	0	422
12	0	0	0	0	425
13	0	0	0	0	420
14	0	0	0	0	418
15	0	0	0	0	547
0	0	0	0	0	394
1	0	0	0	0	441
2	0	0	0	0	506
3	0	0	0	0	415
4	0	0	0	0	489
5	0	0	0	0	494
6	0	0	0	0	612
7	0	0	0	0	857
8	0	0	0	0	965
9	0	0	0	0	542
10	0	0	0	0	271
11	0	0	0	0	324
12	0	0	0	0	406
13	0	0	0	0	454
14	0	0	0	0	505
15	0	0	0	0	393
0	0	0	0	0	432
1	0	0	0	0	467
2	0	0	0	0	496
3	0	0	0	0	479
4	0	0	0	0	521
5	0	0	0	0	502
6	0	0	0	0	455
7	0	0	0	0	492
8	0	0	0	0	519
9	0	0	0	0	513
10	0	0	0	0	506
11	0	0	0	0	534
12	0	0	0	0	470
13	0	0	0	0	494
14	0	0	0	0	530
15	0	0	0	0	528
0	0	0	0	0	527
1	0	0	0	0	527
2	0	0	0	0	541
3	0	0	0	0	534
4	0	0	0	0	473
5	0	0	0	0	478
6	0	0	0	0	469
7	0	0	0	0	476
8	0	0	0	0	586
9	0	0	0	0	551
10	0	0	0	0	497
11	0	0	0	0	511
12	0	0	0	0	541
13	0	0	0	0	563
14	0	0	0	0	591
15	0	0	0	0	612
0	0	0	0	0	590
1	0	0	0	0	607
2	0	0	0	0	491
3	0	0	0	0	510
4	0	0	0	0	529
5	0	0	0	0	519
6	0	0	0	0	483
7	0	0	0	0	521
8	0	0	0	0	456
9	0	0	0	0	455
10	0	0	0	0	400
11	0	0	0	0	423
12	0	0	0	0	385
13	0	0	0	0	431
14	0	0	0	0	368
15	0	0	0	0	394
0	0	0	0	0	400
1	0	0	0	0	446
2	0	0	0	0	430
3	0	0	0	0	445
4	0	0	0	0	459
5	0	0	0	0	433
6	0	0	0	0	470
7	0	0	0	0	455
8	0	0	0	0	552
9	0	0	0	0	546
10	0	0	0	0	540
11	0	0	0	0	582
12	0	0	0	0	531
13	0	0	0	0	691
14	0	0	0	0	974
15	0	0	0	0	742
0	0	0	0	0	330
1	0	0	0	0	331
2	0	0	0	0	399
3	0	0	0	0	428
4	0	0	0	0	440
5	0	0	0	0	460
6	0	0	0	0	476
7	0	0	0	0	493
8	0	0	0	0	511
9	0	0	0	0	547
10	0	0	0	0	539
11	0	0	0	0	467
12	0	0	0	0	510
13	0	0	0	0	528
14	0	0	0	0	487
15	0	0	0	0	513
0	0	0	0	0	554
1	0	0	0	0	556
2	0	0	0	0	570
3	0	0	0	0	606
4	0	0	0	0	536
5	0	0	0	0	542
6	0	0	0	0	480
7	0	0	0	0	466
8	0	0	0	0	519
9	0	0	0	0	422
10	0	0	0	0	431
11	0	0	0	0	474
12	0	0	0	0	435
13	0	0	0	0	468
14	0	0	0	0	486
15	0	0	0	0	518
0	0	0	0	0	519
1	0	0	0	0	549
2	0	0	0	0	468
3	0	0	0	0	625
4	0	0	0	0	396
5	0	0	0	0	448
6	0	0	0	0	471
7	0	0	0	0	459
8	0	0	0	0	481
9	0	0	0	0	504
10	0	0	0	0	505
11	0	0	0	0	505
12	0	0	0	0	573
13	0	0	0	0	489
14	0	0	0	0	547
15	0	0	0	0	553
0	0	0	0	0	517
1	0	0	0	0	574
2	0	0	0	0	579
3	0	0	0	0	504
4	0	0	0	0	511
5	0	0	0	0	507
6	0	0	0	0	477
7	0	0	0	0	493
8	0	0	0	0	526
9	0	0	0	0	465
10	0	0	0	0	485
11	0	0	0	0	499
12	0	0	0	0	510
13	0	0	0	0	512
14	0	0	0	0	581
15	0	0	0	0	434
0	0	0	0	0	527
1	0	0	0	0	784
2	0	0	0	0	1022
3	0	0	0	0	624
4	0	0	0	0	345
5	0	0	0	0	401
6	0	0	0	0	486
7	0	0	0	0	510
8	0	0	0	0	509
9	0	0	0	0	551
10	0	0	0	0	544
11	0	0	0	0	551
12	0	0	0	0	462
13	0	0	0	0	424
14	0	0	0	0	470
15	0	0	0	0	522
0	0	0	0	0	543
1	0	0	0	0	579
2	0	0	0	0	576
3	0	0	0	0	566
4	0	0	0	0	562
5	0	0	0	0	535
6	0	0	0	0	546
7	0	0	0	0	524
8	0	0	0	0	467
9	0	0	0	0	471
10	0	0	0	0	467
11	0	0	0	0	469
12	0	0	0	0	460
13	0	0	0	0	445
14	0	0	0	0	468
15	0	0	0	0	496
0	0	0	0	0	420
1	0	0	0	0	440
2	0	0	0	0	446
3	0	0	0	0	458
4	0	0	0	0	463
5	0	0	0	0	469
6	0	0	0	0	481
7	0	0	0	0	480
8	0	0	0	0	510
9	0	0	0	0	512
10	0	0	0	0	537
11	0	0	0	0	531
12	0	0	0	0	554
13	0	0	0	0	527
14	0	0	0	0	510
15	0	0	0	0	510
0	0	0	0	0	505
1	0	0	0	0	506
2	0	0	0	0	518
3	0	0	0	0	512
4	0	0	0	0	513
5	0	0	0	0	425
6	0	0	0	0	465
7	0	0	0	0	408
8	0	0	0	0	370
9	0	0	0	0	409
10	0	0	0	0	430
11	0	0	0	0	434
12	0	0	0	0	448
13	0	0	0	0	440
14	0	0	0	0	452
15	0	0	0	0	450
0	0	0	0	0	475
1	0	0	0	0	461
2	0	0	0	0	600
3	0	0	0	0	887
4	0	0	0	0	976
5	0	0	0	0	369
6	0	0	0	0	172
7	0	0	0	0	316
8	0	0	0	0	416
9	0	0	0	0	374
10	0	0	0	0	403
11	0	0	0	0	459
12	0	0	0	0	480
13	0	0	0	0	462
14	0	0	0	0	482
15	0	0	0	0	496
0	0	0	0	0	482
1	0	0	0	0	489
2	0	0	0	0	420
3	0	0	0	0	506
4	0	0	0	0	557
5	0	0	0	0	634
6	0	0	0	0	638
7	0	0	0	0	591
8	0	0	0	0	549
9	0	0	0	0	499
10	0	0	0	0	467
11	0	0	0	0	565
12	0	0	0	0	566
13	0	0	0	0	503
14	0	0	0	0	504
15	0	0	0	0	497
0	0	0	0	0	467
1	0	0	0	0	477
2	0	0	0	0	465
3	0	0	0	0	502
4	0	0	0	0	508
5	0	0	0	0	543
6	0	0	0	0	514
7	0	0	0	0	471
8	0	0	0	0	481
9	0	0	0	0	473
10	0	0	0	0	484
11	0	0	0	0	504
12	0	0	0	0	499
13	0	0	0	0	543
14	0	0	0	0	530
15	0	0	0	0	556
0	0	0	0	0	558
1	0	0	0	0	597
2	0	0	0	0	544
3	0	0	0	0	508
4	0	0	0	0	536
5	0	0	0	0	517
6	0	0	0	0	502
7	0	0	0	0	519
8	0	0	0	0	468
9	0	0	0	0	408
10	0	0	0	0	385
11	0	0	0	0	450
12	0	0	0	0	493
13	0	0	0	0	410
14	0	0	0	0	452
15	0	0	0	0	462
0	0	0	0	0	524
1	0	0	0	0	573
2	0	0	0	0	555
3	0	0	0	0	578
4	0	0	0	0	686
5	0	0	0	0	932
6	0	0	0	0	870
7	0	0	0	0	376
8	0	0	0	0	293
9	0	0	0	0	409
10	0	0	0	0	484
11	0	0	0	0	529
12	0	0	0	0	591
13	0	0	0	0	581
14	0	0	0	0	515
15	0	0	0	0	611
0	0	0	0	0	603
1	0	0	0	0	579
2	0	0	0	0	511
3	0	0	0	0	516
4	0	0	0	0	487
5	0	0	0	0	505
6	0	0	0	0	464
7	0	0	0	0	436
8	0	0	0	0	475
9	0	0	0	0	452
10	0	0	0	0	509
11	0	0	0	0	499
12	0	0	0	0	554
13	0	0	0	0	505
14	0	0	0	0	502
15	0	0	0	0	511
0	0	0	0	0	496
1	0	0	0	0	465
2	0	0	0	0	539
3	0	0	0	0	495
4	0	0	0	0	521
5	0	0	0	0	544
6	0	0	0	0	515
7	0	0	0	0	546
8	0	0	0	0	599
9	0	0	0	0	464
10	0	0	0	0	418
11	0	0	0	0	403
12	0	0	0	0	321
13	0	0	0	0	317
14	0	0	0	0	352
15	0	0	0	0	425
0	0	0	0	0	495
1	0	0	0	0	495
2	0	0	0	0	574
3	0	0	0	0	534
4	0	0	0	0	499
5	0	0	0	0	521
6	0	0	0	0	485
7	0	0	0	0	390
8	0	0	0	0	374
9	0	0	0	0	420
10	0	0	0	0	424
11	0	0	0	0	456
12	0	0	0	0	457
13	0	0	0	0	454
14	0	0	0	0	466
15	0	0	0	0	462
0	0	0	0	0	468
1	0	0	0	0	504
2	0	0	0	0	539
3	0	0	0	0	481
4	0	0	0	0	519
5	0	0	0	0	565
6	0	0	0	0	557
7	0	0	0	0	708
8	0	0	0	0	955
9	0	0	0	0	916
10	0	0	0	0	350
11	0	0	0	0	275
12	0	0	0	0	382
13	0	0	0	0	500
14	0	0	0	0	583
15	0	0	0	0	580
0	0	0	0	0	560
1	0	0	0	0	504
2	0	0	0	0	499
3	0	0	0	0	531
4	0	0	0	0	464
5	0	0	0	0	465
6	0	0	0	0	443
7	0	0	0	0	518
8	0	0	0	0	518
9	0	0	0	0	542
10	0	0	0	0	543
11	0	0	0	0	526
12	0	0	0	0	545
13	0	0	0	0	597
14	0	0	0	0	601
15	0	0	0	0	613
0	0	0	0	0	505
1	0	0	0	0	478
2	0	0	0	0	361
3	0	0	0	0	349
4	0	0	0	0	415
5	0	0	0	0	464
6	0	0	0	0	543
7	0	0	0	0	583
8	0	0	0	0	643
9	0	0	0	0	572
10	0	0	0	0	604
11	0	0	0	0	544
12	0	0	0	0	335
13	0	0	0	0	448
14	0	0	0	0	600
15	0	0	0	0	567
0	0	0	0	0	527
1	0	0	0	0	607
2	0	0	0	0	559
3	0	0	0	0	446
4	0	0	0	0	464
5	0	0	0	0	412
6	0	0	0	0	446
7	0	0	0	0	489
8	0	0	0	0	530
9	0	0	0	0	553
10	0	0	0	0	561
11	0	0	0	0	579
12	0	0	0	0	534
13	0	0	0	0	574
14	0	0	0	0	492
15	0	0	0	0	492
0	0	0	0	0	529
1	0	0	0	0	510
2	0	0	0	0	483
3	0	0	0	0	481
4	0	0	0	0	508
5	0	0	0	0	608
6	0	0	0	0	524
7	0	0	0	0	499
8	0	0	0	0	545
9	0	0	0	0	583
10	0	0	0	0	593
11	0	0	0	0	746
12	0	0	0	0	928
13	0	0	0	0	886
14	0	0	0	0	422
15	0	0	0	0	223
0	0	0	0	0	356
1	0	0	0	0	403
2	0	0	0	0	420
3	0	0	0	0	482
4	0	0	0	0	523
5	0	0	0	0	473
6	0	0	0	0	480
7	0	0	0	0	510
8	0	0	0	0	497
9	0	0	0	0	543
10	0	0	0	0	409
11	0	0	0	0	409
12	0	0	0	0	328
13	0	0	0	0	384
14	0	0	0	0	473
15	0	0	0	0	543
0	0	0	0	0	527
1	0	0	0	0	556
2	0	0	0	0	507
3	0	0	0	0	506
4	0	0	0	0	485
5	0	0	0	0	411
6	0	0	0	0	361
7	0	0	0	0	374
8	0	0	0	0	482
9	0	0	0	0	420
10	0	0	0	0	405
11	0	0	0	0	556
12	0	0	0	0	502
13	0	0	0	0	593
14	0	0	0	0	526
15	0	0	0	0	483
0	0	0	0	0	431
1	0	0	0	0	440
2	0	0	0	0	475
3	0	0	0	0	551
4	0	0	0	0	454
5	0	0	0	0	500
6	0	0	0	0	480
7	0	0	0	0	505
8	0	0	0	0	534
9	0	0	0	0	494
10	0	0	0	0	568
11	0	0	0	0	577
12	0	0	0	0	560
13	0	0	0	0	492
14	0	0	0	0	483
15	0	0	0	0	552
0	0	0	0	0	530
1	0	0	0	0	518
2	0	0	0	0	548
3	0	0	0	0	531
4	0	0	0	0	509
5	0	0	0	0	539
6	0	0	0	0	494
7	0	0	0	0	433
8	0	0	0	0	504
9	0	0	0	0	429
10	0	0	0	0	451
11	0	0	0	0	521
12	0	0	0	0	526
13	0	0	0	0	521
14	0	0	0	0	506
15	0	0	0	0	555
0	0	0	0	0	775
1	0	0	0	0	1022
2	0	0	0	0	572
3	0	0	0	0	226
4	0	0	0	0	199
5	0	0	0	0	216
6	0	0	0	0	336
7	0	0	0	0	419
8	0	0	0	0	432
9	0	0	0	0	510
10	0	0	0	0	421
11	0	0	0	0	405
12	0	0	0	0	530
13	0	0	0	0	564
14	0	0	0	0	638
15	0	0	0	0	614
0	0	0	0	0	555
1	0	0	0	0	501
2	0	0	0	0	576
3	0	0	0	0	545
4	0	0	0	0	643
5	0	0	0	0	572
6	0	0	0	0	430
7	0	0	0	0	440
8	0	0	0	0	496
9	0	0	0	0	519
10	0	0	0	0	502
11	0	0	0	0	644
12	0	0	0	0	494
13	0	0	0	0	425
14	0	0	0	0	540
15	0	0	0	0	507
0	0	0	0	0	503
1	0	0	0	0	544
2	0	0	0	0	460
3	0	0	0	0	512
4	0	0	0	0	463
5	0	0	0	0	459
6	0	0	0	0	563
7	0	0	0	0	524
8	0	0	0	0	600
9	0	0	0	0	493
10	0	0	0	0	503
11	0	0	0	0	510
12	0	0	0	0	490
13	0	0	0	0	500
14	0	0	0	0	526
15	0	0	0	0	484
0	0	0	0	0	543
1	0	0	0	0	510
2	0	0	0	0	532
3	0	0	0	0	563
4	0	0	0	0	537
5	0	0	0	0	521
6	0	0	0	0	535
7	0	0	0	0	627
8	0	0	0	0	439
9	0	0	0	0	514
10	0	0	0	0	514
11	0	0	0	0	474
12	0	0	0	0	471
13	0	0	0	0	492
14	0	0	0	0	481
15	0	0	0	0	470
0	0	0	0	0	567
1	0	0	0	0	491
2	0	0	0	0	525
3	0	0	0	0	574
4	0	0	0	0	464
5	0	0	0	0	442
6	0	0	0	0	547
7	0	0	0	0	702
8	0	0	0	0	994
9	0	0	0	0	859
10	0	0	0	0	339
11	0	0	0	0	352
12	0	0	0	0	386
13	0	0	0	0	400
14	0	0	0	0	422
15	0	0	0	0	388
0	0	0	0	0	474
1	0	0	0	0	524
2	0	0	0	0	520
3	0	0	0	0	422
4	0	0	0	0	499
5	0	0	0	0	524
6	0	0	0	0	494
7	0	0	0	0	673
8	0	0	0	0	511
9	0	0	0	0	624
10	0	0	0	0	577
11	0	0	0	0	556
12	0	0	0	0	567
13	0	0	0	0	488
14	0	0	0	0	544
15	0	0	0	0	472
0	0	0	0	0	468
1	0	0	0	0	528
2	0	0	0	0	408
3	0	0	0	0	497
4	0	0	0	0	453
5	0	0	0	0	408
6	0	0	0	0	467
7	0	0	0	0	391
8	0	0	0	0	397
9	0	0	0	0	400
10	0	0	0	0	382
11	0	0	0	0	452
12	0	0	0	0	390
13	0	0	0	0	483
14	0	0	0	0	424
15	0	0	0	0	452
0	0	0	0	0	432
1	0	0	0	0	436
2	0	0	0	0	474
3	0	0	0	0	541
4	0	0	0	0	439
5	0	0	0	0	424
6	0	0	0	0	493
7	0	0	0	0	480
8	0	0	0	0	451
9	0	0	0	0	500
10	0	0	0	0	406
11	0	0	0	0	510
12	0	0	0	0	471
13	0	0	0	0	523
14	0	0	0	0	496
15	0	0	0	0	531
0	0	0	0	0	581
1	0	0	0	0	438
2	0	0	0	0	609
3	0	0	0	0	484
4	0	0	0	0	524
5	0	0	0	0	520
6	0	0	0	0	471
7	0	0	0	0	450
8	0	0	0	0	412
9	0	0	0	0	425
10	0	0	0	0	499
11	0	0	0	0	524
12	0	0	0	0	565
13	0	0	0	0	566
14	0	0	0	0	530
15	0	0	0	0	694
0	0	0	0	0	980
1	0	0	0	0	914
2	0	0	0	0	462
3	0	0	0	0	298
4	0	0	0	0	260
5	0	0	0	0	418
6	0	0	0	0	417
7	0	0	0	0	510
8	0	0	0	0	557
9	0	0	0	0	544
10	0	0	0	0	622
11	0	0	0	0	584
12	0	0	0	0	545
13	0	0	0	0	548
14	0	0	0	0	476
15	0	0	0	0	318
0	0	0	0	0	424
1	0	0	0	0	508
2	0	0	0	0	494
3	0	0	0	0	494
4	0	0	0	0	461
5	0	0	0	0	571
6	0	0	0	0	633
7	0	0	0	0	552
8	0	0	0	0	486
9	0	0	0	0	487
10	0	0	0	0	574
11	0	0	0	0	531
12	0	0	0	0	489
13	0	0	0	0	532
14	0	0	0	0	513
15	0	0	0	0	532
0	0	0	0	0	484
1	0	0	0	0	519
2	0	0	0	0	512
3	0	0	0	0	472
4	0	0	0	0	487
5	0	0	0	0	526
6	0	0	0	0	536
7	0	0	0	0	517
8	0	0	0	0	509
9	0	0	0	0	545
10	0	0	0	0	546
11	0	0	0	0	495
12	0	0	0	0	549
13	0	0	0	0	491
14	0	0	0	0	517
15	0	0	0	0	492
0	0	0	0	0	530
1	0	0	0	0	606
2	0	0	0	0	499
3	0	0	0	0	494
4	0	0	0	0	492
5	0	0	0	0	517
6	0	0	0	0	570
7	0	0	0	0	563
8	0	0	0	0	497
9	0	0	0	0	564
10	0	0	0	0	485
11	0	0	0	0	446
12	0	0	0	0	499
13	0	0	0	0	467
14	0	0	0	0	528
15	0	0	0	0	481
0	0	0	0	0	436
1	0	0	0	0	486
2	0	0	0	0	455
3	0	0	0	0	573
4	0	0	0	0	503
5	0	0	0	0	479
6	0	0	0	0	542
7	0	0	0	0	776
8	0	0	0	0	1022
9	0	0	0	0	545
10	0	0	0	0	288
11	0	0	0	0	321
12	0	0	0	0	403
13	0	0	0	0	433
14	0	0	0	0	517
15	0	0	0	0	411
0	0	0	0	0	463
1	0	0	0	0	458
2	0	0	0	0	456
3	0	0	0	0	461
4	0	0	0	0	487
5	0	0	0	0	528
6	0	0	0	0	480
7	0	0	0	0	553
8	0	0	0	0	556
9	0	0	0	0	552
10	0	0	0	0	600
11	0	0	0	0	567
12	0	0	0	0	510
13	0	0	0	0	564
14	0	0	0	0	531
15	0	0	0	0	546
0	0	0	0	0	523
1	0	0	0	0	524
2	0	0	0	0	487
3	0	0	0	0	533
4	0	0	0	0	388
5	0	0	0	0	491
6	0	0	0	0	519
7	0	0	0	0	532
8	0	0	0	0	569
9	0	0	0	0	583
10	0	0	0	0	583
11	0	0	0	0	491
12	0	0	0	0	505
13	0	0	0	0	511
14	0	0	0	0	397
15	0	0	0	0	505
0	0	0	0	0	425
1	0	0	0	0	467
2	0	0	0	0	462
3	0	0	0	0	497
4	0	0	0	0	506
5	0	0	0	0	512
6	0	0	0	0	486
7	0	0	0	0	469
8	0	0	0	0	386
9	0	0	0	0	421
10	0	0	0	0	448
11	0	0	0	0	509
12	0	0	0	0	488
13	0	0	0	0	504
14	0	0	0	0	453
15	0	0	0	0	505
0	0	0	0	0	463
1	0	0	0	0	520
2	0	0	0	0	572
3	0	0	0	0	546
4	0	0	0	0	460
5	0	0	0	0	595
6	0	0	0	0	381
7	0	0	0	0	451
8	0	0	0	0	478
9	0	0	0	0	436
10	0	0	0	0	413
11	0	0	0	0	499
12	0	0	0	0	521
13	0	0	0	0	462
14	0	0	0	0	557
15	0	0	0	0	448
0	0	0	0	0	421
1	0	0	0	0	520
2	0	0	0	0	795
3	0	0	0	0	978
4	0	0	0	0	530
5	0	0	0	0	246
6	0	0	0	0	361
7	0	0	0	0	467
8	0	0	0	0	468
9	0	0	0	0	505
10	0	0	0	0	504
11	0	0	0	0	516
12	0	0	0	0	462
13	0	0	0	0	487
14	0	0	0	0	451
15	0	0	0	0	485
0	0	0	0	0	547
1	0	0	0	0	544
2	0	0	0	0	571
3	0	0	0	0	550
4	0	0	0	0	521
5	0	0	0	0	536
6	0	0	0	0	494
7	0	0	0	0	497
8	0	0	0	0	365
9	0	0	0	0	318
10	0	0	0	0	451
11	0	0	0	0	576
12	0	0	0	0	593
13	0	0	0	0	574
14	0	0	0	0	548
15	0	0	0	0	512
0	0	0	0	0	461
1	0	0	0	0	405
2	0	0	0	0	380
3	0	0	0	0	345
4	0	0	0	0	448
5	0	0	0	0	622
6	0	0	0	0	512
7	0	0	0	0	547
8	0	0	0	0	580
9	0	0	0	0	579
10	0	0	0	0	508
11	0	0	0	0	545
12	0	0	0	0	521
13	0	0	0	0	594
14	0	0	0	0	561
15	0	0	0	0	579
0	0	0	0	0	520
1	0	0	0	0	446
2	0	0	0	0	543
3	0	0	0	0	475
4	0	0	0	0	464
5	0	0	0	0	457
6	0	0	0	0	554
7	0	0	0	0	515
8	0	0	0	0	543
9	0	0	0	0	499
10	0	0	0	0	543
11	0	0	0	0	474
12	0	0	0	0	551
13	0	0	0	0	503
14	0	0	0	0	566
15	0	0	0	0	537
0	0	0	0	0	509
1	0	0	0	0	532
2	0	0	0	0	506
3	0	0	0	0	505
4	0	0	0	0	476
5	0	0	0	0	491
6	0	0	0	0	492
7	0	0	0	0	488
8	0	0	0	0	516
9	0	0	0	0	495
10	0	0	0	0	550
11	0	0	0	0	498
12	0	0	0	0	535
13	0	0	0	0	742
14	0	0	0	0	967
15	0	0	0	0	790
0	0	0	0	0	364
1	0	0	0	0	323
2	0	0	0	0	424
3	0	0	0	0	414
4	0	0	0	0	436
5	0	0	0	0	451
6	0	0	0	0	476
7	0	0	0	0	496
8	0	0	0	0	475
9	0	0	0	0	519
10	0	0	0	0	448
11	0	0	0	0	469
12	0	0	0	0	508
13	0	0	0	0	486
14	0	0	0	0	519
15	0	0	0	0	464
0	0	0	0	0	502
1	0	0	0	0	523
2	0	0	0	0	530
3	0	0	0	0	528
4	0	0	0	0	518
5	0	0	0	0	512
6	0	0	0	0	517
7	0	0	0	0	529
8	0	0	0	0	479
9	0	0	0	0	511
10	0	0	0	0	468
11	0	0	0	0	448
12	0	0	0	0	508
13	0	0	0	0	474
14	0	0	0	0	467
15	0	0	0	0	480
0	0	0	0	0	496
1	0	0	0	0	436
2	0	0	0	0	451
3	0	0	0	0	513
4	0	0	0	0	451
5	0	0	0	0	471
6	0	0	0	0	503
7	0	0	0	0	489
8	0	0	0	0	464
9	0	0	0	0	504
10	0	0	0	0	478
11	0	0	0	0	550
12	0	0	0	0	461
13	0	0	0	0	492
14	0	0	0	0	481
15	0	0	0	0	500
0	0	0	0	0	473
1	0	0	0	0	508
2	0	0	0	0	540
3	0	0	0	0	517
4	0	0	0	0	541
5	0	0	0	0	550
6	0	0	0	0	508
7	0	0	0	0	569
8	0	0	0	0	597
9	0	0	0	0	507
10	0	0	0	0	503
11	0	0	0	0	560
12	0	0	0	0	514
13	0	0	0	0	438
14	0	0	0	0	467
15	0	0	0	0	479
0	0	0	0	0	496
1	0	0	0	0	563
2	0	0	0	0	518
3	0	0	0	0	513
4	0	0	0	0	529
5	0	0	0	0	533
6	0	0	0	0	441
7	0	0	0	0	640
8	0	0	0	0	876
9	0	0	0	0	697
10	0	0	0	0	308
11	0	0	0	0	283
12	0	0	0	0	476
13	0	0	0	0	366
14	0	0	0	0	415
15	0	0	0	0	488
0	0	0	0	0	477
1	0	0	0	0	487
2	0	0	0	0	534
3	0	0	0	0	505
4	0	0	0	0	496
5	0	0	0	0	541
6	0	0	0	0	523
7	0	0	0	0	540
8	0	0	0	0	552
9	0	0	0	0	550
10	0	0	0	0	575
11	0	0	0	0	556
12	0	0	0	0	512
13	0	0	0	0	596
14	0	0	0	0	551
15	0	0	0	0	472
0	0	0	0	0	524
1	0	0	0	0	539
2	0	0	0	0	516
3	0	0	0	0	496
4	0	0	0	0	478
5	0	0	0	0	468
6	0	0	0	0	519
7	0	0	0	0	481
8	0	0	0	0	423
9	0	0	0	0	450
10	0	0	0	0	418
11	0	0	0	0	441
12	0	0	0	0	415
13	0	0	0	0	469
14	0	0	0	0	509
15	0	0	0	0	487
0	0	0	0	0	578
1	0	0	0	0	492
2	0	0	0	0	543
3	0	0	0	0	430
4	0	0	0	0	514
5	0	0	0	0	523
6	0	0	0	0	515
7	0	0	0	0	516
8	0	0	0	0	514
9	0	0	0	0	578
10	0	0	0	0	506
11	0	0	0	0	464
12	0	0	0	0	421
13	0	0	0	0	488
14	0	0	0	0	472
15	0	0	0	0	520
0	0	0	0	0	519
1	0	0	0	0	564
2	0	0	0	0	601
3	0	0	0	0	542
4	0	0	0	0	512
5	0	0	0	0	593
6	0	0	0	0	534
7	0	0	0	0	564
8	0	0	0	0	488
9	0	0	0	0	492
10	0	0	0	0	465
11	0	0	0	0	568
12	0	0	0	0	478
13	0	0	0	0	517
14	0	0	0	0	481
15	0	0	0	0	504
0	0	0	0	0	551
1	0	0	0	0	496
2	0	0	0	0	601
3	0	0	0	0	792
4	0	0	0	0	1022
5	0	0	0	0	745
6	0	0	0	0	320
7	0	0	0	0	318
8	0	0	0	0	404
9	0	0	0	0	460
10	0	0	0	0	380
11	0	0	0	0	394
12	0	0	0	0	434
13	0	0	0	0	423
14	0	0	0	0	479
15	0	0	0	0	438
0	0	0	0	0	519
1	0	0	0	0	466
2	0	0	0	0	462
3	0	0	0	0	448
4	0	0	0	0	442
5	0	0	0	0	447
6	0	0	0	0	468
7	0	0	0	0	463
8	0	0	0	0	491
9	0	0	0	0	468
10	0	0	0	0	451
11	0	0	0	0	491
12	0	0	0	0	497
13	0	0	0	0	503
14	0	0	0	0	514
15	0	0	0	0	514
0	0	0	0	0	516
1	0	0	0	0	455
2	0	0	0	0	446
3	0	0	0	0	499
4	0	0	0	0	503
5	0	0	0	0	499
6	0	0	0	0	464
7	0	0	0	0	475
8	0	0	0	0	511
9	0	0	0	0	514
10	0	0	0	0	478
11	0	0	0	0	564
12	0	0	0	0	471
13	0	0	0	0	511
14	0	0	0	0	515
15	0	0	0	0	505
0	0	0	0	0	505
1	0	0	0	0	440
2	0	0	0	0	476
3	0	0	0	0	493
4	0	0	0	0	483
5	0	0	0	0	482
6	0	0	0	0	522
7	0	0	0	0	468
8	0	0	0	0	510
9	0	0	0	0	528
10	0	0	0	0	497
11	0	0	0	0	531
12	0	0	0	0	530
13	0	0	0	0	536
14	0	0	0	0	578
15	0	0	0	0	558
0	0	0	0	0	523
1	0	0	0	0	527
2	0	0	0	0	531
3	0	0	0	0	498
4	0	0	0	0	509
5	0	0	0	0	428
6	0	0	0	0	469
7	0	0	0	0	523
8	0	0	0	0	492
9	0	0	0	0	494
10	0	0	0	0	543
11	0	0	0	0	491
12	0	0	0	0	540
13	0	0	0	0	541
14	0	0	0	0	536
15	0	0	0	0	647
0	0	0	0	0	951
1	0	0	0	0	927
2	0	0	0	0	484
3	0	0	0	0	321
4	0	0	0	0	448
5	0	0	0	0	486
6	0	0	0	0	485
7	0	0	0	0	510
8	0	0	0	0	545
9	0	0	0	0	575
10	0	0	0	0	504
11	0	0	0	0	510
12	0	0	0	0	587
13	0	0	0	0	469
14	0	0	0	0	511
15	0	0	0	0	502
0	0	0	0	0	506
1	0	0	0	0	555
2	0	0	0	0	507
3	0	0	0	0	529
4	0	0	0	0	543
5	0	0	0	0	536
6	0	0	0	0	545
7	0	0	0	0	541
8	0	0	0	0	506
9	0	0	0	0	492
10	0	0	0	0	537
11	0	0	0	0	517
12	0	0	0	0	480
13	0	0	0	0	476
14	0	0	0	0	504
15	0	0	0	0	470
0	0	0	0	0	469
1	0	0	0	0	473
2	0	0	0	0	436
3	0	0	0	0	519
4	0	0	0	0	450
5	0	0	0	0	448
6	0	0	0	0	486
7	0	0	0	0	458
8	0	0	0	0	496
9	0	0	0	0	539
10	0	0	0	0	554
11	0	0	0	0	497
12	0	0	0	0	605
13	0	0	0	0	467
14	0	0	0	0	482
15	0	0	0	0	522
0	0	0	0	0	527
1	0	0	0	0	546
2	0	0	0	0	462
3	0	0	0	0	485
4	0	0	0	0	556
5	0	0	0	0	486
6	0	0	0	0	482
7	0	0	0	0	505
8	0	0	0	0	522
9	0	0	0	0	516
10	0	0	0	0	535
11	0	0	0	0	541
12	0	0	0	0	551
13	0	0	0	0	501
14	0	0	0	0	474
15	0	0	0	0	487
0	0	0	0	0	474
1	0	0	0	0	495
2	0	0	0	0	468
3	0	0	0	0	514
4	0	0	0	0	494
5	0	0	0	0	540
6	0	0	0	0	540
7	0	0	0	0	469
8	0	0	0	0	465
9	0	0	0	0	646
10	0	0	0	0	948
11	0	0	0	0	803
12	0	0	0	0	349
13	0	0	0	0	277
14	0	0	0	0	427
15	0	0	0	0	403
0	0	0	0	0	434
1	0	0	0	0	476
2	0	0	0	0	428
3	0	0	0	0	397
4	0	0	0	0	438
5	0	0	0	0	445
6	0	0	0	0	443
7	0	0	0	0	464
8	0	0	0	0	462
9	0	0	0	0	524
10	0	0	0	0	439
11	0	0	0	0	488
12	0	0	0	0	496
13	0	0	0	0	480
14	0	0	0	0	515
15	0	0	0	0	530
0	0	0	0	0	512
1	0	0	0	0	517
2	0	0	0	0	536
3	0	0	0	0	504
4	0	0	0	0	484
5	0	0	0	0	494
6	0	0	0	0	490
7	0	0	0	0	490
8	0	0	0	0	503
9	0	0	0	0	460
10	0	0	0	0	462
11	0	0	0	0	459
12	0	0	0	0	478
13	0	0	0	0	474
14	0	0	0	0	455
15	0	0	0	0	494
0	0	0	0	0	518
1	0	0	0	0	496
2	0	0	0	0	484
3	0	0	0	0	513
4	0	0	0	0	500
5	0	0	0	0	509
6	0	0	0	0	527
7	0	0	0	0	523
8	0	0	0	0	510
9	0	0	0	0	499
10	0	0	0	0	483
11	0	0	0	0	519
12	0	0	0	0	519
13	0	0	0	0	445
14	0	0	0	0	461
15	0	0	0	0	461
0	0	0	0	0	441
1	0	0	0	0	446
2	0	0	0	0	500
3	0	0	0	0	511
4	0	0	0	0	500
5	0	0	0	0	554
6	0	0	0	0	579
7	0	0	0	0	579
8	0	0	0	0	598
9	0	0	0	0	603
10	0	0	0	0	527
11	0	0	0	0	426
12	0	0	0	0	554
13	0	0	0	0	553
14	0	0	0	0	543
15	0	0	0	0	492
0	0	0	0	0	516
1	0	0	0	0	486
2	0	0	0	0	495
3	0	0	0	0	500
4	0	0	0	0	546
5	0	0	0	0	529
6	0	0	0	0	525
7	0	0	0	0	688
8	0	0	0	0	924
9	0	0	0	0	865
10	0	0	0	0	335
11	0	0	0	0	224
12	0	0	0	0	354
13	0	0	0	0	412
14	0	0	0	0	444
15	0	0	0	0	437
0	0	0	0	0	500
1	0	0	0	0	467
2	0	0	0	0	484
3	0	0	0	0	516
4	0	0	0	0	523
5	0	0	0	0	531
6	0	0	0	0	488
7	0	0	0	0	462
8	0	0	0	0	474
9	0	0	0	0	519
10	0	0	0	0	526
11	0	0	0	0	495
12	0	0	0	0	498
13	0	0	0	0	510
14	0	0	0	0	575
15	0	0	0	0	556
0	0	0	0	0	513
1	0	0	0	0	514
2	0	0	0	0	535
3	0	0	0	0	515
4	0	0	0	0	528
5	0	0	0	0	518
6	0	0	0	0	475
7	0	0	0	0	487
8	0	0	0	0	443
9	0	0	0	0	489
10	0	0	0	0	499
11	0	0	0	0	491
12	0	0	0	0	496
13	0	0	0	0	469
14	0	0	0	0	492
15	0	0	0	0	536
0	0	0	0	0	560
1	0	0	0	0	574
2	0	0	0	0	511
3	0	0	0	0	508
4	0	0	0	0	489
5	0	0	0	0	497
6	0	0	0	0	505
7	0	0	0	0	489
8	0	0	0	0	491
9	0	0	0	0	534
10	0	0	0	0	478
11	0	0	0	0	491
12	0	0	0	0	492
13	0	0	0	0	475
14	0	0	0	0	470
15	0	0	0	0	506
0	0	0	0	0	510
1	0	0	0	0	526
2	0	0	0	0	563
3	0	0	0	0	582
4	0	0	0	0	563
5	0	0	0	0	560
6	0	0	0	0	607
7	0	0	0	0	609
8	0	0	0	0	588
9	0	0	0	0	519
10	0	0	0	0	523
11	0	0	0	0	494
12	0	0	0	0	487
13	0	0	0	0	494
14	0	0	0	0	487
15	0	0	0	0	515
0	0	0	0	0	548
1	0	0	0	0	468
2	0	0	0	0	482
3	0	0	0	0	477
4	0	0	0	0	495
5	0	0	0	0	491
6	0	0	0	0	487
7	0	0	0	0	564
8	0	0	0	0	794
9	0	0	0	0	1021
10	0	0	0	0	569
11	0	0	0	0	286
12	0	0	0	0	264
13	0	0	0	0	383
14	0	0	0	0	391
15	0	0	0	0	413
0	0	0	0	0	455
1	0	0	0	0	450
2	0	0	0	0	484
3	0	0	0	0	460
4	0	0	0	0	466
5	0	0	0	0	531
6	0	0	0	0	489
7	0	0	0	0	440
8	0	0	0	0	476
9	0	0	0	0	464
10	0	0	0	0	499
11	0	0	0	0	514
12	0	0	0	0	561
13	0	0	0	0	533
14	0	0	0	0	554
15	0	0	0	0	539
0	0	0	0	0	529
1	0	0	0	0	498
2	0	0	0	0	529
3	0	0	0	0	525
4	0	0	0	0	538
5	0	0	0	0	508
6	0	0	0	0	508
7	0	0	0	0	542
8	0	0	0	0	465
9	0	0	0	0	464
10	0	0	0	0	480
11	0	0	0	0	444
12	0	0	0	0	481
13	0	0	0	0	436
14	0	0	0	0	431
15	0	0	0	0	483
0	0	0	0	0	423
1	0	0	0	0	477
2	0	0	0	0	539
3	0	0	0	0	529
4	0	0	0	0	561
5	0	0	0	0	560
6	0	0	0	0	550
7	0	0	0	0	517
8	0	0	0	0	502
9	0	0	0	0	511
10	0	0	0	0	414
11	0	0	0	0	412
12	0	0	0	0	482
13	0	0	0	0	523
14	0	0	0	0	538
15	0	0	0	0	571
0	0	0	0	0	573
1	0	0	0	0	549
2	0	0	0	0	528
3	0	0	0	0	526
4	0	0	0	0	546
5	0	0	0	0	540
6	0	0	0	0	564
7	0	0	0	0	575
8	0	0	0	0	550
9	0	0	0	0	531
10	0	0	0	0	512
11	0	0	0	0	466
12	0	0	0	0	453
13	0	0	0	0	432
14	0	0	0	0	439
15	0	0	0	0	484
0	0	0	0	0	554
1	0	0	0	0	463
2	0	0	0	0	505
3	0	0	0	0	537
4	0	0	0	0	469
5	0	0	0	0	473
6	0	0	0	0	503
7	0	0	0	0	681
8	0	0	0	0	956
9	0	0	0	0	816
10	0	0	0	0	369
11	0	0	0	0	297
12	0	0	0	0	429
13	0	0	0	0	470
14	0	0	0	0	476
15	0	0	0	0	498
0	0	0	0	0	506
1	0	0	0	0	492
2	0	0	0	0	491
3	0	0	0	0	472
4	0	0	0	0	470
5	0	0	0	0	465
6	0	0	0	0	466
7	0	0	0	0	490
8	0	0	0	0	520
9	0	0	0	0	532
10	0	0	0	0	543
11	0	0	0	0	564
12	0	0	0	0	480
13	0	0	0	0	444
14	0	0	0	0	484
15	0	0	0	0	503
0	0	0	0	0	509
1	0	0	0	0	519
2	0	0	0	0	523
3	0	0	0	0	508
4	0	0	0	0	491
5	0	0	0	0	480
6	0	0	0	0	471
7	0	0	0	0	475
8	0	0	0	0	471
9	0	0	0	0	487
10	0	0	0	0	454
11	0	0	0	0	459
12	0	0	0	0	492
13	0	0	0	0	468
14	0	0	0	0	486
15	0	0	0	0	487
0	0	0	0	0	495
1	0	0	0	0	497
2	0	0	0	0	499
3	0	0	0	0	519
4	0	0	0	0	511
5	0	0	0	0	521
6	0	0	0	0	530
7	0	0	0	0	534
8	0	0	0	0	516
9	0	0	0	0	495
10	0	0	0	0	504
11	0	0	0	0	504
12	0	0	0	0	508
13	0	0	0	0	494
14	0	0	0	0	508
15	0	0	0	0	507
0	0	0	0	0	511
1	0	0	0	0	482
2	0	0	0	0	515
3	0	0	0	0	567
4	0	0	0	0	501
5	0	0	0	0	509
6	0	0	0	0	539
7	0	0	0	0	536
8	0	0	0	0	519
9	0	0	0	0	513
10	0	0	0	0	487
11	0	0	0	0	472
12	0	0	0	0	476
13	0	0	0	0	478
14	0	0	0	0	484
15	0	0	0	0	512
0	0	0	0	0	491
1	0	0	0	0	501
2	0	0	0	0	488
3	0	0	0	0	484
4	0	0	0	0	477
5	0	0	0	0	554
6	0	0	0	0	775
7	0	0	0	0	1022
8	0	0	0	0	676
9	0	0	0	0	307
10	0	0	0	0	369
11	0	0	0	0	471
12	0	0	0	0	403
13	0	0	0	0	417
14	0	0	0	0	438
15	0	0	0	0	462
0	0	0	0	0	485
1	0	0	0	0	471
2	0	0	0	0	471
3	0	0	0	0	454
4	0	0	0	0	465
5	0	0	0	0	481
6	0	0	0	0	509
7	0	0	0	0	516
8	0	0	0	0	509
9	0	0	0	0	495
10	0	0	0	0	518
11	0	0	0	0	542
12	0	0	0	0	498
13	0	0	0	0	563
14	0	0	0	0	500
15	0	0	0	0	500
0	0	0	0	0	523
1	0	0	0	0	529
2	0	0	0	0	517
3	0	0	0	0	495
4	0	0	0	0	513
5	0	0	0	0	455
6	0	0	0	0	468
7	0	0	0	0	471
8	0	0	0	0	473
9	0	0	0	0	477
10	0	0	0	0	520
11	0	0	0	0	515
12	0	0	0	0	435
13	0	0	0	0	497
14	0	0	0	0	473
15	0	0	0	0	484
0	0	0	0	0	516
1	0	0	0	0	497
2	0	0	0	0	540
3	0	0	0	0	531
4	0	0	0	0	527
5	0	0	0	0	520
6	0	0	0	0	492
7	0	0	0	0	496
8	0	0	0	0	499
9	0	0	0	0	506
10	0	0	0	0	513
11	0	0	0	0	521
12	0	0	0	0	554
13	0	0	0	0	508
14	0	0	0	0	488
15	0	0	0	0	499
0	0	0	0	0	516
1	0	0	0	0	508
2	0	0	0	0	509
3	0	0	0	0	526
4	0	0	0	0	525
5	0	0	0	0	536
6	0	0	0	0	532
7	0	0	0	0	555
8	0	0	0	0	553
9	0	0	0	0	535
10	0	0	0	0	644
11	0	0	0	0	446
12	0	0	0	0	467
13	0	0	0	0	466
14	0	0	0	0	446
15	0	0	0	0	474
0	0	0	0	0	480
1	0	0	0	0	495
2	0	0	0	0	510
3	0	0	0	0	539
4	0	0	0	0	463
5	0	0	0	0	515
6	0	0	0	0	489
7	0	0	0	0	607
8	0	0	0	0	881
9	0	0	0	0	927
10	0	0	0	0	440
11	0	0	0	0	292
12	0	0	0	0	419
13	0	0	0	0	460
14	0	0	0	0	429
15	0	0	0	0	477
0	0	0	0	0	494
1	0	0	0	0	544
2	0	0	0	0	467
3	0	0	0	0	571
4	0	0	0	0	476
5	0	0	0	0	499
6	0	0	0	0	512
7	0	0	0	0	521
8	0	0	0	0	528
9	0	0	0	0	535
10	0	0	0	0	511
11	0	0	0	0	567
12	0	0	0	0	541
13	0	0	0	0	517
14	0	0	0	0	500
15	0	0	0	0	495
0	0	0	0	0	524
1	0	0	0	0	515
2	0	0	0	0	505
3	0	0	0	0	501
4	0	0	0	0	494
5	0	0	0	0	471
6	0	0	0	0	465
7	0	0	0	0	440
8	0	0	0	0	447
9	0	0	0	0	446
10	0	0	0	0	440
11	0	0	0	0	475
12	0	0	0	0	482
13	0	0	0	0	465
14	0	0	0	0	464
15	0	0	0	0	454
0	0	0	0	0	483
1	0	0	0	0	503
2	0	0	0	0	533
3	0	0	0	0	531
4	0	0	0	0	534
5	0	0	0	0	510
6	0	0	0	0	510
7	0	0	0	0	479
8	0	0	0	0	502
9	0	0	0	0	496
10	0	0	0	0	522
11	0	0	0	0	481
12	0	0	0	0	502
13	0	0	0	0	535
14	0	0	0	0	514
15	0	0	0	0	482
0	0	0	0	0	492
1	0	0	0	0	485
2	0	0	0	0	492
3	0	0	0	0	545
4	0	0	0	0	523
5	0	0	0	0	509
6	0	0	0	0	574
7	0	0	0	0	563
8	0	0	0	0	508
9	0	0	0	0	552
10	0	0	0	0	483
11	0	0	0	0	479
12	0	0	0	0	496
13	0	0	0	0	474
14	0	0	0	0	516
15	0	0	0	0	447
0	0	0	0	0	504
1	0	0	0	0	483
2	0	0	0	0	493
3	0	0	0	0	488
4	0	0	0	0	502
5	0	0	0	0	526
6	0	0	0	0	494
7	0	0	0	0	680
8	0	0	0	0	907
9	0	0	0	0	952
10	0	0	0	0	367
11	0	0	0	0	242
12	0	0	0	0	398
13	0	0	0	0	431
14	0	0	0	0	449
15	0	0	0	0	435
0	0	0	0	0	470
1	0	0	0	0	484
2	0	0	0	0	462
3	0	0	0	0	479
4	0	0	0	0	496
5	0	0	0	0	492
6	0	0	0	0	480
7	0	0	0	0	513
8	0	0	0	0	508
9	0	0	0	0	515
10	0	0	0	0	518
11	0	0	0	0	519
12	0	0	0	0	514
13	0	0	0	0	532
14	0	0	0	0	531
15	0	0	0	0	543
0	0	0	0	0	521
1	0	0	0	0	521
2	0	0	0	0	517
3	0	0	0	0	504
4	0	0	0	0	493
5	0	0	0	0	490
6	0	0	0	0	487
7	0	0	0	0	479
8	0	0	0	0	466
9	0	0	0	0	471
10	0	0	0	0	467
11	0	0	0	0	468
12	0	0	0	0	469
13	0	0	0	0	482
14	0	0	0	0	482
15	0	0	0	0	492
0	0	0	0	0	493
1	0	0	0	0	499
2	0	0	0	0	507
3	0	0	0	0	520
4	0	0	0	0	520
5	0	0	0	0	516
6	0	0	0	0	521
7	0	0	0	0	529
8	0	0	0	0	512
9	0	0	0	0	500
10	0	0	0	0	499
11	0	0	0	0	498
12	0	0	0	0	499
13	0	0	0	0	504
14	0	0	0	0	498
15	0	0	0	0	559
0	0	0	0	0	481
1	0	0	0	0	480
2	0	0	0	0	528
3	0	0	0	0	525
4	0	0	0	0	526
5	0	0	0	0	555
6	0	0	0	0	552
7	0	0	0	0	531
8	0	0	0	0	524
9	0	0	0	0	500
10	0	0	0	0	488
11	0	0	0	0	458
12	0	0	0	0	468
13	0	0	0	0	481
14	0	0	0	0	500
15	0	0	0	0	498
0	0	0	0	0	491
1	0	0	0	0	508
2	0	0	0	0	512
3	0	0	0	0	495
4	0	0	0	0	500
5	0	0	0	0	636
6	0	0	0	0	899
7	0	0	0	0	995
8	0	0	0	0	438
9	0	0	0	0	272
10	0	0	0	0	393
11	0	0	0	0	420
12	0	0	0	0	423
13	0	0	0	0	442
14	0	0	0	0	465
15	0	0	0	0	483
0	0	0	0	0	484
1	0	0	0	0	473
2	0	0	0	0	481
3	0	0	0	0	487
4	0	0	0	0	494
5	0	0	0	0	503
6	0	0	0	0	489
7	0	0	0	0	503
8	0	0	0	0	531
9	0	0	0	0	545
10	0	0	0	0	552
11	0	0	0	0	553
12	0	0	0	0	543
13	0	0	0	0	563
14	0	0	0	0	554
15	0	0	0	0	543
0	0	0	0	0	532
1	0	0	0	0	543
2	0	0	0	0	530
3	0	0	0	0	521
4	0	0	0	0	479
5	0	0	0	0	492
6	0	0	0	0	472
7	0	0	0	0	465
8	0	0	0	0	457
9	0	0	0	0	481
10	0	0	0	0	483
11	0	0	0	0	503
12	0	0	0	0	526
13	0	0	0	0	529
14	0	0	0	0	518
15	0	0	0	0	518
0	0	0	0	0	487
1	0	0	0	0	490
2	0	0	0	0	484
3	0	0	0	0	482
4	0	0	0	0	455
5	0	0	0	0	405
6	0	0	0	0	295
7	0	0	0	0	431
8	0	0	0	0	449
9	0	0	0	0	407
10	0	0	0	0	502
11	0	0	0	0	548
12	0	0	0	0	528
13	0	0	0	0	446
14	0	0	0	0	419
15	0	0	0	0	514
0	0	0	0	0	547
1	0	0	0	0	521
2	0	0	0	0	403
3	0	0	0	0	433
4	0	0	0	0	476
5	0	0	0	0	521
6	0	0	0	0	548
7	0	0	0	0	544
8	0	0	0	0	543
9	0	0	0	0	556
10	0	0	0	0	558
11	0	0	0	0	574
12	0	0	0	0	575
13	0	0	0	0	551
14	0	0	0	0	537
15	0	0	0	0	520
0	0	0	0	0	522
1	0	0	0	0	520
2	0	0	0	0	541
3	0	0	0	0	542
4	0	0	0	0	532
5	0	0	0	0	569
6	0	0	0	0	537
7	0	0	0	0	499
8	0	0	0	0	591
9	0	0	0	0	794
10	0	0	0	0	1022
11	0	0	0	0	637
12	0	0	0	0	294
13	0	0	0	0	370
14	0	0	0	0	435
15	0	0	0	0	468
0	0	0	0	0	475
1	0	0	0	0	498
2	0	0	0	0	459
3	0	0	0	0	458
4	0	0	0	0	463
5	0	0	0	0	485
6	0	0	0	0	479
7	0	0	0	0	522
8	0	0	0	0	495
9	0	0	0	0	495
10	0	0	0	0	477
11	0	0	0	0	499
12	0	0	0	0	517
13	0	0	0	0	532
14	0	0	0	0	539
15	0	0	0	0	543
0	0	0	0	0	524
1	0	0	0	0	520
2	0	0	0	0	534
3	0	0	0	0	574
4	0	0	0	0	487
5	0	0	0	0	445
6	0	0	0	0	442
7	0	0	0	0	448
8	0	0	0	0	450
9	0	0	0	0	448
10	0	0	0	0	446
11	0	0	0	0	448
12	0	0	0	0	460
13	0	0	0	0	492
14	0	0	0	0	460
15	0	0	0	0	452
0	0	0	0	0	507
1	0	0	0	0	495
2	0	0	0	0	500
3	0	0	0	0	563
4	0	0	0	0	471
5	0	0	0	0	512
6	0	0	0	0	512
7	0	0	0	0	544
8	0	0	0	0	521
9	0	0	0	0	509
10	0	0	0	0	529
11	0	0	0	0	533
12	0	0	0	0	532
13	0	0	0	0	518
14	0	0	0	0	620
15	0	0	0	0	495
0	0	0	0	0	462
1	0	0	0	0	509
2	0	0	0	0	500
3	0	0	0	0	523
4	0	0	0	0	544
5	0	0	0	0	539
6	0	0	0	0	525
7	0	0	0	0	526
8	0	0	0	0	517
9	0	0	0	0	525
10	0	0	0	0	566
11	0	0	0	0	535
12	0	0	0	0	534
13	0	0	0	0	562
14	0	0	0	0	527
15	0	0	0	0	539
0	0	0	0	0	512
1	0	0	0	0	484
2	0	0	0	0	474
3	0	0	0	0	486
4	0	0	0	0	493
5	0	0	0	0	511
6	0	0	0	0	518
7	0	0	0	0	511
8	0	0	0	0	551
9	0	0	0	0	545
10	0	0	0	0	449
11	0	0	0	0	494
12	0	0	0	0	501
13	0	0	0	0	628
14	0	0	0	0	992
15	0	0	0	0	832
0	0	0	0	0	406
1	0	0	0	0	224
2	0	0	0	0	391
3	0	0	0	0	376
4	0	0	0	0	411
5	0	0	0	0	443
6	0	0	0	0	440
7	0	0	0	0	492
8	0	0	0	0	460
9	0	0	0	0	456
10	0	0	0	0	503
11	0	0	0	0	532
12	0	0	0	0	512
13	0	0	0	0	542
14	0	0	0	0	488
15	0	0	0	0	479
0	0	0	0	0	494
1	0	0	0	0	484
2	0	0	0	0	524
3	0	0	0	0	527
4	0	0	0	0	517
5	0	0	0	0	562
6	0	0	0	0	496
7	0	0	0	0	577
8	0	0	0	0	461
9	0	0	0	0	472
10	0	0	0	0	478
11	0	0	0	0	494
12	0	0	0	0	511
13	0	0	0	0	525
14	0	0	0	0	460
15	0	0	0	0	466
0	0	0	0	0	529
1	0	0	0	0	416
2	0	0	0	0	478
3	0	0	0	0	473
4	0	0	0	0	455
5	0	0	0	0	486
6	0	0	0	0	512
7	0	0	0	0	526
8	0	0	0	0	519
9	0	0	0	0	529
10	0	0	0	0	515
11	0	0	0	0	514
12	0	0	0	0	485
13	0	0	0	0	495
14	0	0	0	0	501
15	0	0	0	0	492
0	0	0	0	0	514
1	0	0	0	0	528
2	0	0	0	0	507
3	0	0	0	0	517
4	0	0	0	0	511
5	0	0	0	0	504
6	0	0	0	0	514
7	0	0	0	0	534
8	0	0	0	0	520
9	0	0	0	0	553
10	0	0	0	0	541
11	0	0	0	0	512
12	0	0	0	0	558
13	0	0	0	0	498
14	0	0	0	0	490
15	0	0	0	0	472
0	0	0	0	0	480
1	0	0	0	0	489
2	0	0	0	0	425
3	0	0	0	0	441
4	0	0	0	0	473
5	0	0	0	0	483
6	0	0	0	0	487
7	0	0	0	0	516
8	0	0	0	0	498
9	0	0	0	0	544
10	0	0	0	0	571
11	0	0	0	0	833
12	0	0	0	0	1007
13	0	0	0	0	511
14	0	0	0	0	288
15	0	0	0	0	367
0	0	0	0	0	432
1	0	0	0	0	446
2	0	0	0	0	472
3	0	0	0	0	484
4	0	0	0	0	521
5	0	0	0	0	434
6	0	0	0	0	465
7	0	0	0	0	498
8	0	0	0	0	502
9	0	0	0	0	510
10	0	0	0	0	514
11	0	0	0	0	504
12	0	0	0	0	499
13	0	0	0	0	536
14	0	0	0	0	510
15	0	0	0	0	522
0	0	0	0	0	532
1	0	0	0	0	524
2	0	0	0	0	512
3	0	0	0	0	544
4	0	0	0	0	550
5	0	0	0	0	546
6	0	0	0	0	531
7	0	0	0	0	440
8	0	0	0	0	496
9	0	0	0	0	466
10	0	0	0	0	495
11	0	0	0	0	461
12	0	0	0	0	493
13	0	0	0	0	489
14	0	0	0	0	465
15	0	0	0	0	491
0	0	0	0	0	387
1	0	0	0	0	472
2	0	0	0	0	451
3	0	0	0	0	475
4	0	0	0	0	501
5	0	0	0	0	459
6	0	0	0	0	477
7	0	0	0	0	505
8	0	0	0	0	448
9	0	0	0	0	443
10	0	0	0	0	466
11	0	0	0	0	485
12	0	0	0	0	509
13	0	0	0	0	501
14	0	0	0	0	472
15	0	0	0	0	480
0	0	0	0	0	472
1	0	0	0	0	505
2	0	0	0	0	518
3	0	0	0	0	533
4	0	0	0	0	508
5	0	0	0	0	511
6	0	0	0	0	544
7	0	0	0	0	550
8	0	0	0	0	550
9	0	0	0	0	500
10	0	0	0	0	558
11	0	0	0	0	568
12	0	0	0	0	545
13	0	0	0	0	565
14	0	0	0	0	512
15	0	0	0	0	518
0	0	0	0	0	599
1	0	0	0	0	465
2	0	0	0	0	485
3	0	0	0	0	465
4	0	0	0	0	455
5	0	0	0	0	503
6	0	0	0	0	527
7	0	0	0	0	529
8	0	0	0	0	536
9	0	0	0	0	515
10	0	0	0	0	544
11	0	0	0	0	687
12	0	0	0	0	957
13	0	0	0	0	828
14	0	0	0	0	452
15	0	0	0	0	309
0	0	0	0	0	380
1	0	0	0	0	462
2	0	0	0	0	397
3	0	0	0	0	484
4	0	0	0	0	499
5	0	0	0	0	504
6	0	0	0	0	497
7	0	0	0	0	504
8	0	0	0	0	578
9	0	0	0	0	467
10	0	0	0	0	478
11	0	0	0	0	566
12	0	0	0	0	482
13	0	0	0	0	501
14	0	0	0	0	553
15	0	0	0	0	528
0	0	0	0	0	520
1	0	0	0	0	561
2	0	0	0	0	581
3	0	0	0	0	502
4	0	0	0	0	477
5	0	0	0	0	519
6	0	0	0	0	534
7	0	0	0	0	488
8	0	0	0	0	563
9	0	0	0	0	514
10	0	0	0	0	466
11	0	0	0	0	472
12	0	0	0	0	454
13	0	0	0	0	407
14	0	0	0	0	418
15	0	0	0	0	476
0	0	0	0	0	446
1	0	0	0	0	456
2	0	0	0	0	483
3	0	0	0	0	470
4	0	0	0	0	496
5	0	0	0	0	487
6	0	0	0	0	501
7	0	0	0	0	487
8	0	0	0	0	501
9	0	0	0	0	505
10	0	0	0	0	494
11	0	0	0	0	499
12	0	0	0	0	513
13	0	0	0	0	511
14	0	0	0	0	480
15	0	0	0	0	519
0	0	0	0	0	546
1	0	0	0	0	445
2	0	0	0	0	459
3	0	0	0	0	487
4	0	0	0	0	479
5	0	0	0	0	515
6	0	0	0	0	530
7	0	0	0	0	503
8	0	0	0	0	514
9	0	0	0	0	540
10	0	0	0	0	520
11	0	0	0	0	558
12	0	0	0	0	429
13	0	0	0	0	456
14	0	0	0	0	476
15	0	0	0	0	454
0	0	0	0	0	522
1	0	0	0	0	483
2	0	0	0	0	514
3	0	0	0	0	462
4	0	0	0	0	494
5	0	0	0	0	508
6	0	0	0	0	515
7	0	0	0	0	517
8	0	0	0	0	579
9	0	0	0	0	750
10	0	0	0	0	1022
11	0	0	0	0	693
12	0	0	0	0	362
13	0	0	0	0	298
14	0	0	0	0	450
15	0	0	0	0	475
0	0	0	0	0	461
1	0	0	0	0	440
2	0	0	0	0	468
3	0	0	0	0	480
4	0	0	0	0	471
5	0	0	0	0	457
6	0	0	0	0	476
7	0	0	0	0	515
8	0	0	0	0	463
9	0	0	0	0	455
10	0	0	0	0	481
11	0	0	0	0	480
12	0	0	0	0	434
13	0	0	0	0	461
14	0	0	0	0	434
15	0	0	0	0	423
0	0	0	0	0	396
1	0	0	0	0	440
2	0	0	0	0	446
3	0	0	0	0	419
4	0	0	0	0	383
5	0	0	0	0	395
6	0	0	0	0	412
7	0	0	0	0	390
8	0	0	0	0	429
9	0	0	0	0	411
10	0	0	0	0	400
11	0	0	0	0	486
12	0	0	0	0	429
13	0	0	0	0	491
14	0	0	0	0	469
15	0	0	0	0	491
0	0	0	0	0	542
1	0	0	0	0	566
2	0	0	0	0	588
3	0	0	0	0	611
4	0	0	0	0	625
5	0	0	0	0	572
6	0	0	0	0	653
7	0	0	0	0	666
8	0	0	0	0	698
9	0	0	0	0	659
10	0	0	0	0	577
11	0	0	0	0	588
12	0	0	0	0	603
13	0	0	0	0	610
14	0	0	0	0	608
15	0	0	0	0	631
0	0	0	0	0	584
1	0	0	0	0	650
2	0	0	0	0	562
3	0	0	0	0	571
4	0	0	0	0	581
5	0	0	0	0	595
6	0	0	0	0	572
7	0	0	0	0	588
8	0	0	0	0	603
9	0	0	0	0	503
10	0	0	0	0	480
11	0	0	0	0	505
12	0	0	0	0	519
13	0	0	0	0	528
14	0	0	0	0	528
15	0	0	0	0	523
0	0	0	0	0	536
1	0	0	0	0	541
2	0	0	0	0	521
3	0	0	0	0	494
4	0	0	0	0	551
5	0	0	0	0	667
6	0	0	0	0	923
7	0	0	0	0	842
8	0	0	0	0	423
9	0	0	0	0	308
10	0	0	0	0	420
11	0	0	0	0	443
12	0	0	0	0	450
13	0	0	0	0	447
14	0	0	0	0	422
15	0	0	0	0	453
0	0	0	0	0	477
1	0	0	0	0	465
2	0	0	0	0	501
3	0	0	0	0	464
4	0	0	0	0	477
5	0	0	0	0	529
6	0	0	0	0	482
7	0	0	0	0	479
8	0	0	0	0	500
9	0	0	0	0	522
10	0	0	0	0	528
11	0	0	0	0	509
12	0	0	0	0	525
13	0	0	0	0	526
14	0	0	0	0	524
15	0	0	0	0	517
0	0	0	0	0	511
1	0	0	0	0	514
2	0	0	0	0	504
3	0	0	0	0	494
4	0	0	0	0	492
5	0	0	0	0	438
6	0	0	0	0	433
7	0	0	0	0	421
8	0	0	0	0	439
9	0	0	0	0	444
10	0	0	0	0	424
11	0	0	0	0	428
12	0	0	0	0	480
13	0	0	0	0	448
14	0	0	0	0	468
15	0	0	0	0	557
0	0	0	0	0	461
1	0	0	0	0	490
2	0	0	0	0	445
3	0	0	0	0	480
4	0	0	0	0	499
5	0	0	0	0	500
6	0	0	0	0	497
7	0	0	0	0	514
8	0	0	0	0	453
9	0	0	0	0	475
10	0	0	0	0	480
11	0	0	0	0	494
12	0	0	0	0	499
13	0	0	0	0	555
14	0	0	0	0	495
15	0	0	0	0	491
0	0	0	0	0	522
1	0	0	0	0	551
2	0	0	0	0	565
3	0	0	0	0	572
4	0	0	0	0	551
5	0	0	0	0	515
6	0	0	0	0	514
7	0	0	0	0	507
8	0	0	0	0	500
9	0	0	0	0	544
10	0	0	0	0	507
11	0	0	0	0	453
12	0	0	0	0	480
13	0	0	0	0	465
14	0	0	0	0	481
15	0	0	0	0	496
0	0	0	0	0	511
1	0	0	0	0	515
2	0	0	0	0	515
3	0	0	0	0	619
4	0	0	0	0	920
5	0	0	0	0	999
6	0	0	0	0	477
7	0	0	0	0	270
8	0	0	0	0	348
9	0	0	0	0	431
10	0	0	0	0	445
11	0	0	0	0	478
12	0	0	0	0	478
13	0	0	0	0	532
14	0	0	0	0	494
15	0	0	0	0	544
0	0	0	0	0	551
1	0	0	0	0	463
2	0	0	0	0	441
3	0	0	0	0	468
4	0	0	0	0	492
5	0	0	0	0	510
6	0	0	0	0	474
7	0	0	0	0	519
8	0	0	0	0	564
9	0	0	0	0	556
10	0	0	0	0	523
11	0	0	0	0	560
12	0	0	0	0	569
13	0	0	0	0	529
14	0	0	0	0	506
15	0	0	0	0	513
0	0	0	0	0	498
1	0	0	0	0	484
2	0	0	0	0	499
3	0	0	0	0	481
4	0	0	0	0	503
5	0	0	0	0	458
6	0	0	0	0	430
7	0	0	0	0	430
8	0	0	0	0	431
9	0	0	0	0	464
10	0	0	0	0	484
11	0	0	0	0	479
12	0	0	0	0	503
13	0	0	0	0	480
14	0	0	0	0	478
15	0	0	0	0	506
0	0	0	0	0	499
1	0	0	0	0	551
2	0	0	0	0	517
3	0	0	0	0	430
4	0	0	0	0	481
5	0	0	0	0	485
6	0	0	0	0	493
7	0	0	0	0	499
8	0	0	0	0	514
9	0	0	0	0	495
10	0	0	0	0	511
11	0	0	0	0	539
12	0	0	0	0	466
13	0	0	0	0	491
14	0	0	0	0	512
15	0	0	0	0	531
0	0	0	0	0	538
1	0	0	0	0	532
2	0	0	0	0	524
3	0	0	0	0	536
4	0	0	0	0	537
5	0	0	0	0	466
6	0	0	0	0	456
7	0	0	0	0	463
8	0	0	0	0	472
9	0	0	0	0	470
10	0	0	0	0	476
11	0	0	0	0	497
12	0	0	0	0	505
13	0	0	0	0	465
14	0	0	0	0	496
15	0	0	0	0	501
0	0	0	0	0	524
1	0	0	0	0	664
2	0	0	0	0	924
3	0	0	0	0	849
4	0	0	0	0	353
5	0	0	0	0	274
6	0	0	0	0	400
7	0	0	0	0	434
8	0	0	0	0	441
9	0	0	0	0	453
10	0	0	0	0	509
11	0	0	0	0	447
12	0	0	0	0	449
13	0	0	0	0	481
14	0	0	0	0	473
15	0	0	0	0	487
0	0	0	0	0	507
1	0	0	0	0	517
2	0	0	0	0	505
3	0	0	0	0	508
4	0	0	0	0	519
5	0	0	0	0	527
6	0	0	0	0	534
7	0	0	0	0	537
8	0	0	0	0	555
9	0	0	0	0	594
10	0	0	0	0	531
11	0	0	0	0	492
12	0	0	0	0	516
13	0	0	0	0	515
14	0	0	0	0	505
15	0	0	0	0	533
0	0	0	0	0	483
1	0	0	0	0	483
2	0	0	0	0	485
3	0	0	0	0	491
4	0	0	0	0	492
5	0	0	0	0	475
6	0	0	0	0	475
7	0	0	0	0	487
8	0	0	0	0	488
9	0	0	0	0	480
10	0	0	0	0	492
11	0	0	0	0	513
12	0	0	0	0	517
13	0	0	0	0	524
14	0	0	0	0	508
15	0	0	0	0	512
0	0	0	0	0	504
1	0	0	0	0	510
2	0	0	0	0	516
3	0	0	0	0	517
4	0	0	0	0	524
5	0	0	0	0	521
6	0	0	0	0	496
7	0	0	0	0	497
8	0	0	0	0	513
9	0	0	0	0	525
10	0	0	0	0	526
11	0	0	0	0	544
12	0	0	0	0	550
13	0	0	0	0	527
14	0	0	0	0	528
15	0	0	0	0	534
0	0	0	0	0	519
1	0	0	0	0	490
2	0	0	0	0	496
3	0	0	0	0	457
4	0	0	0	0	467
5	0	0	0	0	475
6	0	0	0	0	499
7	0	0	0	0	493
8	0	0	0	0	502
9	0	0	0	0	511
10	0	0	0	0	490
11	0	0	0	0	481
12	0	0	0	0	531
13	0	0	0	0	694
14	0	0	0	0	996
15	0	0	0	0	747
0	0	0	0	0	312
1	0	0	0	0	303
2	0	0	0	0	430
3	0	0	0	0	433
4	0	0	0	0	448
5	0	0	0	0	443
6	0	0	0	0	454
7	0	0	0	0	491
8	0	0	0	0	467
9	0	0	0	0	478
10	0	0	0	0	489
11	0	0	0	0	487
12	0	0	0	0	499
13	0	0	0	0	483
14	0	0	0	0	503
15	0	0	0	0	521
0	0	0	0	0	516
1	0	0	0	0	522
2	0	0	0	0	522
3	0	0	0	0	530
4	0	0	0	0	556
5	0	0	0	0	524
6	0	0	0	0	529
7	0	0	0	0	545
8	0	0	0	0	463
9	0	0	0	0	483
10	0	0	0	0	555
11	0	0	0	0	457
12	0	0	0	0	524
13	0	0	0	0	419
14	0	0	0	0	414
15	0	0	0	0	445
0	0	0	0	0	440
1	0	0	0	0	464
2	0	0	0	0	483
3	0	0	0	0	478
4	0	0	0	0	473
5	0	0	0	0	489
6	0	0	0	0	482
7	0	0	0	0	552
8	0	0	0	0	505
9	0	0	0	0	430
10	0	0	0	0	459
11	0	0	0	0	478
12	0	0	0	0	502
13	0	0	0	0	483
14	0	0	0	0	547
15	0	0	0	0	528
0	0	0	0	0	525
1	0	0	0	0	514
2	0	0	0	0	507
3	0	0	0	0	521
4	0	0	0	0	498
5	0	0	0	0	489
6	0	0	0	0	500
7	0	0	0	0	507
8	0	0	0	0	528
9	0	0	0	0	531
10	0	0	0	0	568
11	0	0	0	0	563
12	0	0	0	0	573
13	0	0	0	0	555
14	0	0	0	0	503
15	0	0	0	0	472
0	0	0	0	0	503
1	0	0	0	0	493
2	0	0	0	0	485
3	0	0	0	0	466
4	0	0	0	0	389
5	0	0	0	0	294
6	0	0	0	0	244
7	0	0	0	0	135
8	0	0	0	0	117
9	0	0	0	0	52
10	0	0	0	0	139
11	0	0	0	0	372
12	0	0	0	0	623
13	0	0	0	0	131
14	0	0	0	0	0
15	0	0	0	0	0
0	0	0	0	0	9
1	0	0	0	0	109
2	0	0	0	0	255
3	0	0	0	0	368
4	0	0	0	0	456
5	0	0	0	0	526
6	0	0	0	0	584
7	0	0	0	0	661
8	0	0	0	0	650
9	0	0	0	0	710
10	0	0	0	0	727
11	0	0	0	0	760
12	0	0	0	0	775
13	0	0	0	0	795
14	0	0	0	0	784
15	0	0	0	0	771
0	0	0	0	0	779
1	0	0	0	0	789
2	0	0	0	0	786
3	0	0	0	0	764
4	0	0	0	0	777
5	0	0	0	0	755
6	0	0	0	0	720
7	0	0	0	0	703
8	0	0	0	0	712
9	0	0	0	0	672
10	0	0	0	0	644
11	0	0	0	0	642
12	0	0	0	0	653
13	0	0	0	0	605
14	0	0	0	0	602
15	0	0	0	0	589
0	0	0	0	0	583
1	0	0	0	0	601
2	0	0	0	0	596
3	0	0	0	0	588
4	0	0	0	0	578
5	0	0	0	0	580
6	0	0	0	0	586
7	0	0	0	0	558
8	0	0	0	0	585
9	0	0	0	0	568
10	0	0	0	0	536
11	0	0	0	0	540
12	0	0	0	0	558
13	0	0	0	0	532
14	0	0	0	0	521
15	0	0	0	0	518
0	0	0	0	0	531
1	0	0	0	0	539
2	0	0	0	0	525
3	0	0	0	0	521
4	0	0	0	0	543
5	0	0	0	0	537
6	0	0	0	0	546
7	0	0	0	0	557
8	0	0	0	0	548
9	0	0	0	0	526
10	0	0	0	0	533
11	0	0	0	0	503
12	0	0	0	0	475
13	0	0	0	0	455
14	0	0	0	0	496
15	0	0	0	0	467
0	0	0	0	0	473
1	0	0	0	0	491
2	0	0	0	0	487
3	0	0	0	0	503
4	0	0	0	0	505
5	0	0	0	0	487
6	0	0	0	0	484
7	0	0	0	0	560
8	0	0	0	0	785
9	0	0	0	0	1021
10	0	0	0	0	658
11	0	0	0	0	282
12	0	0	0	0	309
13	0	0	0	0	413
14	0	0	0	0	416
15	0	0	0	0	433
0	0	0	0	0	461
1	0	0	0	0	451
2	0	0	0	0	473
3	0	0	0	0	494
4	0	0	0	0	444
5	0	0	0	0	469
6	0	0	0	0	482
7	0	0	0	0	472
8	0	0	0	0	485
9	0	0	0	0	497
10	0	0	0	0	513
11	0	0	0	0	517
12	0	0	0	0	519
13	0	0	0	0	516
14	0	0	0	0	539
15	0	0	0	0	540
0	0	0	0	0	492
1	0	0	0	0	501
2	0	0	0	0	480
3	0	0	0	0	496
4	0	0	0	0	480
5	0	0	0	0	483
6	0	0	0	0	464
7	0	0	0	0	456
8	0	0	0	0	458
9	0	0	0	0	475
10	0	0	0	0	466
11	0	0	0	0	460
12	0	0	0	0	446
13	0	0	0	0	469
14	0	0	0	0	465
15	0	0	0	0	462
0	0	0	0	0	473
1	0	0	0	0	487
2	0	0	0	0	503
3	0	0	0	0	487
4	0	0	0	0	499
5	0	0	0	0	502
6	0	0	0	0	523
7	0	0	0	0	482
8	0	0	0	0	473
9	0	0	0	0	479
10	0	0	0	0	492
11	0	0	0	0	491
12	0	0	0	0	501
13	0	0	0	0	495
14	0	0	0	0	494
15	0	0	0	0	511
0	0	0	0	0	543
1	0	0	0	0	505
2	0	0	0	0	535
3	0	0	0	0	544
4	0	0	0	0	531
5	0	0	0	0	498
6	0	0	0	0	491
7	0	0	0	0	483
8	0	0	0	0	446
9	0	0	0	0	512
10	0	0	0	0	464
11	0	0	0	0	461
12	0	0	0	0	473
13	0	0	0	0	464
14	0	0	0	0	469
15	0	0	0	0	537
0	0	0	0	0	510
1	0	0	0	0	462
2	0	0	0	0	527
3	0	0	0	0	751
4	0	0	0	0	1022
5	0	0	0	0	673
6	0	0	0	0	307
7	0	0	0	0	298
8	0	0	0	0	415
9	0	0	0	0	428
10	0	0	0	0	414
11	0	0	0	0	438
12	0	0	0	0	470
13	0	0	0	0	495
14	0	0	0	0	476
15	0	0	0	0	483
0	0	0	0	0	492
1	0	0	0	0	484
2	0	0	0	0	523
3	0	0	0	0	478
4	0	0	0	0	504
5	0	0	0	0	511
6	0	0	0	0	518
7	0	0	0	0	510
8	0	0	0	0	535
9	0	0	0	0	515
10	0	0	0	0	579
11	0	0	0	0	484
12	0	0	0	0	478
13	0	0	0	0	501
14	0	0	0	0	499
15	0	0	0	0	492
0	0	0	0	0	501
1	0	0	0	0	486
2	0	0	0	0	483
3	0	0	0	0	479
4	0	0	0	0	498
5	0	0	0	0	457
6	0	0	0	0	470
7	0	0	0	0	483
8	0	0	0	0	460
9	0	0	0	0	505
10	0	0	0	0	486
11	0	0	0	0	503
12	0	0	0	0	500
13	0	0	0	0	498
14	0	0	0	0	514
15	0	0	0	0	511
0	0	0	0	0	516
1	0	0	0	0	495
2	0	0	0	0	526
3	0	0	0	0	502
4	0	0	0	0	526
5	0	0	0	0	491
6	0	0	0	0	455
7	0	0	0	0	481
8	0	0	0	0	511
9	0	0	0	0	520
10	0	0	0	0	520
11	0	0	0	0	559
12	0	0	0	0	568
13	0	0	0	0	546
14	0	0	0	0	538
15	0	0	0	0	496
0	0	0	0	0	485
1	0	0	0	0	470
2	0	0	0	0	472
3	0	0	0	0	460
4	0	0	0	0	493
5	0	0	0	0	479
6	0	0	0	0	474
7	0	0	0	0	467
8	0	0	0	0	477
9	0	0	0	0	499
10	0	0	0	0	487
11	0	0	0	0	508
12	0	0	0	0	692
13	0	0	0	0	989
14	0	0	0	0	793
15	0	0	0	0	313
0	0	0	0	0	292
1	0	0	0	0	403
2	0	0	0	0	407
3	0	0	0	0	437
4	0	0	0	0	442
5	0	0	0	0	472
6	0	0	0	0	463
7	0	0	0	0	465
8	0	0	0	0	439
9	0	0	0	0	463
10	0	0	0	0	489
11	0	0	0	0	486
12	0	0	0	0	508
13	0	0	0	0	513
14	0	0	0	0	517
15	0	0	0	0	524
0	0	0	0	0	511
1	0	0	0	0	524
2	0	0	0	0	530
3	0	0	0	0	534
4	0	0	0	0	543
5	0	0	0	0	535
6	0	0	0	0	501
7	0	0	0	0	515
8	0	0	0	0	520
9	0	0	0	0	524
10	0	0	0	0	521
11	0	0	0	0	458
12	0	0	0	0	463
13	0	0	0	0	469
14	0	0	0	0	473
15	0	0	0	0	479
0	0	0	0	0	457
1	0	0	0	0	493
2	0	0	0	0	475
3	0	0	0	0	498
4	0	0	0	0	494
5	0	0	0	0	527
6	0	0	0	0	517
7	0	0	0	0	521
8	0	0	0	0	512
9	0	0	0	0	486
10	0	0	0	0	498
11	0	0	0	0	508
12	0	0	0	0	512
13	0	0	0	0	519
14	0	0	0	0	511
15	0	0	0	0	536
0	0	0	0	0	504
1	0	0	0	0	528
2	0	0	0	0	509
3	0	0	0	0	508
4	0	0	0	0	532
5	0	0	0	0	548
6	0	0	0	0	552
7	0	0	0	0	529
8	0	0	0	0	525
9	0	0	0	0	505
10	0	0	0	0	485
11	0	0	0	0	504
12	0	0	0	0	466
13	0	0	0	0	451
14	0	0	0	0	483
15	0	0	0	0	494
0	0	0	0	0	480
1	0	0	0	0	548
2	0	0	0	0	499
3	0	0	0	0	509
4	0	0	0	0	460
5	0	0	0	0	521
6	0	0	0	0	739
7	0	0	0	0	1014
8	0	0	0	0	662
9	0	0	0	0	323
10	0	0	0	0	379
11	0	0	0	0	415
12	0	0	0	0	462
13	0	0	0	0	433
14	0	0	0	0	498
15	0	0	0	0	419
0	0	0	0	0	448
1	0	0	0	0	471
2	0	0	0	0	518
3	0	0	0	0	542
4	0	0	0	0	488
5	0	0	0	0	472
6	0	0	0	0	472
7	0	0	0	0	510
8	0	0	0	0	510
9	0	0	0	0	526
10	0	0	0	0	555
11	0	0	0	0	598
12	0	0	0	0	519
13	0	0	0	0	527
14	0	0	0	0	484
15	0	0	0	0	528
0	0	0	0	0	499
1	0	0	0	0	506
2	0	0	0	0	502
3	0	0	0	0	496
4	0	0	0	0	506
5	0	0	0	0	512
6	0	0	0	0	472
7	0	0	0	0	539
8	0	0	0	0	496
9	0	0	0	0	446
10	0	0	0	0	468
11	0	0	0	0	477
12	0	0	0	0	502
13	0	0	0	0	508
14	0	0	0	0	498
15	0	0	0	0	514
0	0	0	0	0	505
1	0	0	0	0	505
2	0	0	0	0	549
3	0	0	0	0	542
4	0	0	0	0	540
5	0	0	0	0	540
6	0	0	0	0	471
7	0	0	0	0	445
8	0	0	0	0	486
9	0	0	0	0	508
10	0	0	0	0	507
11	0	0	0	0	519
12	0	0	0	0	539
13	0	0	0	0	533
14	0	0	0	0	525
15	0	0	0	0	519
0	0	0	0	0	545
1	0	0	0	0	551
2	0	0	0	0	532
3	0	0	0	0	516
4	0	0	0	0	566
5	0	0	0	0	463
6	0	0	0	0	448
7	0	0	0	0	441
8	0	0	0	0	464
9	0	0	0	0	468
10	0	0	0	0	475
11	0	0	0	0	486
12	0	0	0	0	500
13	0	0	0	0	521
14	0	0	0	0	508
15	0	0	0	0	474
0	0	0	0	0	492
1	0	0	0	0	659
2	0	0	0	0	962
3	0	0	0	0	786
4	0	0	0	0	347
5	0	0	0	0	304
6	0	0	0	0	435
7	0	0	0	0	425
8	0	0	0	0	389
9	0	0	0	0	403
10	0	0	0	0	453
11	0	0	0	0	482
12	0	0	0	0	457
13	0	0	0	0	475
14	0	0	0	0	461
15	0	0	0	0	512
0	0	0	0	0	472
1	0	0	0	0	563
2	0	0	0	0	511
3	0	0	0	0	490
4	0	0	0	0	429
5	0	0	0	0	479
6	0	0	0	0	506
7	0	0	0	0	476
8	0	0	0	0	559
9	0	0	0	0	585
10	0	0	0	0	543
11	0	0	0	0	553
12	0	0	0	0	545
13	0	0	0	0	492
14	0	0	0	0	504
15	0	0	0	0	503
0	0	0	0	0	431
1	0	0	0	0	520
2	0	0	0	0	486
3	0	0	0	0	576
4	0	0	0	0	464
5	0	0	0	0	424
6	0	0	0	0	462
7	0	0	0	0	499
8	0	0	0	0	491
9	0	0	0	0	504
10	0	0	0	0	485
11	0	0	0	0	517
12	0	0	0	0	558
13	0	0	0	0	497
14	0	0	0	0	575
15	0	0	0	0	502
0	0	0	0	0	492
1	0	0	0	0	500
2	0	0	0	0	524
3	0	0	0	0	532
4	0	0	0	0	576
5	0	0	0	0	519
6	0	0	0	0	474
7	0	0	0	0	525
8	0	0	0	0	568
9	0	0	0	0	572
10	0	0	0	0	641
11	0	0	0	0	429
12	0	0	0	0	442
13	0	0	0	0	447
14	0	0	0	0	465
15	0	0	0	0	462
0	0	0	0	0	460
1	0	0	0	0	511
2	0	0	0	0	498
3	0	0	0	0	537
4	0	0	0	0	510
5	0	0	0	0	513
6	0	0	0	0	523
7	0	0	0	0	578
8	0	0	0	0	695
9	0	0	0	0	878
10	0	0	0	0	720
11	0	0	0	0	338
12	0	0	0	0	277
13	0	0	0	0	408
14	0	0	0	0	408
15	0	0	0	0	440
0	0	0	0	0	462
1	0	0	0	0	515
2	0	0	0	0	548
3	0	0	0	0	366
4	0	0	0	0	421
5	0	0	0	0	471
6	0	0	0	0	488
7	0	0	0	0	488
8	0	0	0	0	497
9	0	0	0	0	540
10	0	0	0	0	531
11	0	0	0	0	632
12	0	0	0	0	456
13	0	0	0	0	460
14	0	0	0	0	478
15	0	0	0	0	513
0	0	0	0	0	511
1	0	0	0	0	514
2	0	0	0	0	527
3	0	0	0	0	528
4	0	0	0	0	505
5	0	0	0	0	510
6	0	0	0	0	463
7	0	0	0	0	479
8	0	0	0	0	483
9	0	0	0	0	482
10	0	0	0	0	487
11	0	0	0	0	494
12	0	0	0	0	555
13	0	0	0	0	443
14	0	0	0	0	488
15	0	0	0	0	457
0	0	0	0	0	483
1	0	0	0	0	516
2	0	0	0	0	535
3	0	0	0	0	538
4	0	0	0	0	483
5	0	0	0	0	511
6	0	0	0	0	515
7	0	0	0	0	519
8	0	0	0	0	509
9	0	0	0	0	540
10	0	0	0	0	513
11	0	0	0	0	504
12	0	0	0	0	575
13	0	0	0	0	539
14	0	0	0	0	531
15	0	0	0	0	510
0	0	0	0	0	524
1	0	0	0	0	510
2	0	0	0	0	494
3	0	0	0	0	512
4	0	0	0	0	510
5	0	0	0	0	432
6	0	0	0	0	430
7	0	0	0	0	456
8	0	0	0	0	505
9	0	0	0	0	519
10	0	0	0	0	505
11	0	0	0	0	513
12	0	0	0	0	500
13	0	0	0	0	583
14	0	0	0	0	817
15	0	0	0	0	1022
0	0	0	0	0	567
1	0	0	0	0	283
2	0	0	0	0	328
3	0	0	0	0	429
4	0	0	0	0	436
5	0	0	0	0	441
6	0	0	0	0	470
7	0	0	0	0	472
8	0	0	0	0	494
9	0	0	0	0	479
10	0	0	0	0	528
11	0	0	0	0	517
12	0	0	0	0	476
13	0	0	0	0	476
14	0	0	0	0	481
15	0	0	0	0	511
0	0	0	0	0	509
1	0	0	0	0	535
2	0	0	0	0	553
3	0	0	0	0	547
4	0	0	0	0	547
5	0	0	0	0	503
6	0	0	0	0	496
7	0	0	0	0	514
8	0	0	0	0	512
9	0	0	0	0	524
10	0	0	0	0	542
11	0	0	0	0	475
12	0	0	0	0	471
13	0	0	0	0	461
14	0	0	0	0	472
15	0	0	0	0	431
0	0	0	0	0	424
1	0	0	0	0	455
2	0	0	0	0	464
3	0	0	0	0	450
4	0	0	0	0	459
5	0	0	0	0	511
6	0	0	0	0	469
7	0	0	0	0	478
8	0	0	0	0	486
9	0	0	0	0	471
10	0	0	0	0	514
11	0	0	0	0	508
12	0	0	0	0	487
13	0	0	0	0	537
14	0	0	0	0	510
15	0	0	0	0	505
0	0	0	0	0	501
1	0	0	0	0	516
2	0	0	0	0	529
3	0	0	0	0	529
4	0	0	0	0	526
5	0	0	0	0	538
6	0	0	0	0	541
7	0	0	0	0	554
8	0	0	0	0	544
9	0	0	0	0	552
10	0	0	0	0	560
11	0	0	0	0	549
12	0	0	0	0	536
13	0	0	0	0	505
14	0	0	0	0	518
15	0	0	0	0	484
0	0	0	0	0	504
1	0	0	0	0	447
2	0	0	0	0	459
3	0	0	0	0	479
4	0	0	0	0	490
5	0	0	0	0	501
6	0	0	0	0	514
7	0	0	0	0	502
8	0	0	0	0	505
9	0	0	0	0	521
10	0	0	0	0	621
11	0	0	0	0	861
12	0	0	0	0	1022
13	0	0	0	0	524
14	0	0	0	0	271
15	0	0	0	0	379
0	0	0	0	0	455
1	0	0	0	0	470
2	0	0	0	0	472
3	0	0	0	0	464
4	0	0	0	0	473
5	0	0	0	0	491
6	0	0	0	0	488
7	0	0	0	0	508
8	0	0	0	0	502
9	0	0	0	0	480
10	0	0	0	0	478
11	0	0	0	0	493
12	0	0	0	0	526
13	0	0	0	0	525
14	0	0	0	0	541
15	0	0	0	0	579
0	0	0	0	0	542
1	0	0	0	0	498
2	0	0	0	0	521
3	0	0	0	0	522
4	0	0	0	0	507
5	0	0	0	0	508
6	0	0	0	0	529
7	0	0	0	0	507
8	0	0	0	0	464
9	0	0	0	0	481
10	0	0	0	0	433
11	0	0	0	0	493
12	0	0	0	0	486
13	0	0	0	0	472
14	0	0	0	0	456
15	0	0	0	0	460
0	0	0	0	0	466
1	0	0	0	0	481
2	0	0	0	0	478
3	0	0	0	0	482
4	0	0	0	0	490
5	0	0	0	0	470
6	0	0	0	0	520
7	0	0	0	0	511
8	0	0	0	0	513
9	0	0	0	0	522
10	0	0	0	0	508
11	0	0	0	0	512
12	0	0	0	0	505
13	0	0	0	0	515
14	0	0	0	0	492
15	0	0	0	0	499
0	0	0	0	0	508
1	0	0	0	0	511
2	0	0	0	0	504
3	0	0	0	0	505
4	0	0	0	0	513
5	0	0	0	0	514
6	0	0	0	0	507
7	0	0	0	0	510
8	0	0	0	0	510
9	0	0	0	0	511
10	0	0	0	0	530
11	0	0	0	0	529
12	0	0	0	0	531
13	0	0	0	0	542
14	0	0	0	0	547
15	0	0	0	0	539
0	0	0	0	0	528
1	0	0	0	0	513
2	0	0	0	0	511
3	0	0	0	0	494
4	0	0	0	0	476
5	0	0	0	0	481
6	0	0	0	0	489
7	0	0	0	0	491
8	0	0	0	0	492
9	0	0	0	0	483
10	0	0	0	0	508
11	0	0	0	0	522
12	0	0	0	0	528
13	0	0	0	0	489
14	0	0	0	0	580
15	0	0	0	0	815
0	0	0	0	0	1022
1	0	0	0	0	536
2	0	0	0	0	292
3	0	0	0	0	380
4	0	0	0	0	438
5	0	0	0	0	447
6	0	0	0	0	450
7	0	0	0	0	439
8	0	0	0	0	535
9	0	0	0	0	454
10	0	0	0	0	499
11	0	0	0	0	436
12	0	0	0	0	480
13	0	0	0	0	496
14	0	0	0	0	496
15	0	0	0	0	518
0	0	0	0	0	526
1	0	0	0	0	547
2	0	0	0	0	556
3	0	0	0	0	509
4	0	0	0	0	499
5	0	0	0	0	511
6	0	0	0	0	527
7	0	0	0	0	548
8	0	0	0	0	546
9	0	0	0	0	531
10	0	0	0	0	514
11	0	0	0	0	516
12	0	0	0	0	512
13	0	0	0	0	475
14	0	0	0	0	459
15	0	0	0	0	465
0	0	0	0	0	460
1	0	0	0	0	439
2	0	0	0	0	446
3	0	0	0	0	459
4	0	0	0	0	492
5	0	0	0	0	464
6	0	0	0	0	488
7	0	0	0	0	471
8	0	0	0	0	482
9	0	0	0	0	491
10	0	0	0	0	502
11	0	0	0	0	514
12	0	0	0	0	515
13	0	0	0	0	528
14	0	0	0	0	512
15	0	0	0	0	516
0	0	0	0	0	506
1	0	0	0	0	529
2	0	0	0	0	555
3	0	0	0	0	476
4	0	0	0	0	502
5	0	0	0	0	506
6	0	0	0	0	596
7	0	0	0	0	430
8	0	0	0	0	491
9	0	0	0	0	475
10	0	0	0	0	497
11	0	0	0	0	507
12	0	0	0	0	497
13	0	0	0	0	504
14	0	0	0	0	501
15	0	0	0	0	523
0	0	0	0	0	529
1	0	0	0	0	540
2	0	0	0	0	534
3	0	0	0	0	521
4	0	0	0	0	521
5	0	0	0	0	528
6	0	0	0	0	530
7	0	0	0	0	533
8	0	0	0	0	557
9	0	0	0	0	544
10	0	0	0	0	520
11	0	0	0	0	511
12	0	0	0	0	495
13	0	0	0	0	485
14	0	0	0	0	478
15	0	0	0	0	478
0	0	0	0	0	490
1	0	0	0	0	493
2	0	0	0	0	498
3	0	0	0	0	495
4	0	0	0	0	480
5	0	0	0	0	499
6	0	0	0	0	516
7	0	0	0	0	507
8	0	0	0	0	627
9	0	0	0	0	874
10	0	0	0	0	1017
11	0	0	0	0	505
12	0	0	0	0	269
13	0	0	0	0	366
14	0	0	0	0	453
15	0	0	0	0	407
0	0	0	0	0	463
1	0	0	0	0	446
2	0	0	0	0	470
3	0	0	0	0	471
4	0	0	0	0	456
5	0	0	0	0	490
6	0	0	0	0	504
7	0	0	0	0	501
8	0	0	0	0	500
9	0	0	0	0	503
10	0	0	0	0	505
11	0	0	0	0	501
12	0	0	0	0	502
13	0	0	0	0	512
14	0	0	0	0	508
15	0	0	0	0	515
0	0	0	0	0	511
1	0	0	0	0	502
2	0	0	0	0	504
3	0	0	0	0	523
4	0	0	0	0	511
5	0	0	0	0	456
6	0	0	0	0	487
7	0	0	0	0	462
8	0	0	0	0	396
9	0	0	0	0	415
10	0	0	0	0	398
11	0	0	0	0	430
12	0	0	0	0	431
13	0	0	0	0	445
14	0	0	0	0	443
15	0	0	0	0	430
0	0	0	0	0	439
1	0	0	0	0	442
2	0	0	0	0	485
3	0	0	0	0	494
4	0	0	0	0	512
5	0	0	0	0	521
6	0	0	0	0	516
7	0	0	0	0	516
8	0	0	0	0	515
9	0	0	0	0	526
10	0	0	0	0	529
11	0	0	0	0	520
12	0	0	0	0	515
13	0	0	0	0	512
14	0	0	0	0	507
15	0	0	0	0	509
0	0	0	0	0	508
1	0	0	0	0	513
2	0	0	0	0	513
3	0	0	0	0	515
4	0	0	0	0	519
5	0	0	0	0	529
6	0	0	0	0	529
7	0	0	0	0	519
8	0	0	0	0	554
9	0	0	0	0	551
10	0	0	0	0	556
11	0	0	0	0	519
12	0	0	0	0	510
13	0	0	0	0	516
14	0	0	0	0	506
15	0	0	0	0	478
0	0	0	0	0	524
1	0	0	0	0	469
2	0	0	0	0	492
3	0	0	0	0	486
4	0	0	0	0	499
5	0	0	0	0	501
6	0	0	0	0	519
7	0	0	0	0	487
8	0	0	0	0	546
9	0	0	0	0	766
10	0	0	0	0	1004
11	0	0	0	0	681
12	0	0	0	0	331
13	0	0	0	0	294
14	0	0	0	0	415
15	0	0	0	0	438
0	0	0	0	0	444
1	0	0	0	0	447
2	0	0	0	0	460
3	0	0	0	0	463
4	0	0	0	0	480
5	0	0	0	0	482
6	0	0	0	0	491
7	0	0	0	0	485
8	0	0	0	0	497
9	0	0	0	0	507
10	0	0	0	0	518
11	0	0	0	0	543
12	0	0	0	0	529
13	0	0	0	0	531
14	0	0	0	0	524
15	0	0	0	0	522
0	0	0	0	0	526
1	0	0	0	0	544
2	0	0	0	0	539
3	0	0	0	0	543
4	0	0	0	0	532
5	0	0	0	0	523
6	0	0	0	0	509
7	0	0	0	0	499
8	0	0	0	0	481
9	0	0	0	0	476
10	0	0	0	0	527
11	0	0	0	0	415
12	0	0	0	0	444
13	0	0	0	0	452
14	0	0	0	0	464
15	0	0	0	0	478
0	0	0	0	0	488
1	0	0	0	0	476
2	0	0	0	0	512
3	0	0	0	0	496
4	0	0	0	0	505
5	0	0	0	0	571
6	0	0	0	0	479
7	0	0	0	0	498
8	0	0	0	0	505
9	0	0	0	0	531
10	0	0	0	0	520
11	0	0	0	0	531
12	0	0	0	0	534
13	0	0	0	0	525
14	0	0	0	0	520
15	0	0	0	0	516
0	0	0	0	0	518
1	0	0	0	0	524
2	0	0	0	0	518
3	0	0	0	0	520
4	0	0	0	0	520
5	0	0	0	0	517
6	0	0	0	0	519
7	0	0	0	0	533
8	0	0	0	0	529
9	0	0	0	0	534
10	0	0	0	0	559
11	0	0	0	0	554
12	0	0	0	0	537
13	0	0	0	0	519
14	0	0	0	0	475
15	0	0	0	0	467
0	0	0	0	0	476
1	0	0	0	0	481
2	0	0	0	0	486
3	0	0	0	0	498
4	0	0	0	0	486
5	0	0	0	0	496
6	0	0	0	0	499
7	0	0	0	0	513
8	0	0	0	0	517
9	0	0	0	0	543
10	0	0	0	0	611
11	0	0	0	0	846
12	0	0	0	0	1010
13	0	0	0	0	490
14	0	0	0	0	272
15	0	0	0	0	365
0	0	0	0	0	449
1	0	0	0	0	459
2	0	0	0	0	463
3	0	0	0	0	474
4	0	0	0	0	482
5	0	0	0	0	480
6	0	0	0	0	496
7	0	0	0	0	491
8	0	0	0	0	493
9	0	0	0	0	513
10	0	0	0	0	511
11	0	0	0	0	520
12	0	0	0	0	504
13	0	0	0	0	533
14	0	0	0	0	532
15	0	0	0	0	511
0	0	0	0	0	525
1	0	0	0	0	532
2	0	0	0	0	536
3	0	0	0	0	542
4	0	0	0	0	531
5	0	0	0	0	534
6	0	0	0	0	524
7	0	0	0	0	534
8	0	0	0	0	483
9	0	0	0	0	480
10	0	0	0	0	456
11	0	0	0	0	453
12	0	0	0	0	460
13	0	0	0	0	458
14	0	0	0	0	463
15	0	0	0	0	468
0	0	0	0	0	473
1	0	0	0	0	499
2	0	0	0	0	485
3	0	0	0	0	487
4	0	0	0	0	514
5	0	0	0	0	480
6	0	0	0	0	504
7	0	0	0	0	505
8	0	0	0	0	511
9	0	0	0	0	515
10	0	0	0	0	520
11	0	0	0	0	521
12	0	0	0	0	528
13	0	0	0	0	515
14	0	0	0	0	509
15	0	0	0	0	520
0	0	0	0	0	501
1	0	0	0	0	511
2	0	0	0	0	510
3	0	0	0	0	509
4	0	0	0	0	524
5	0	0	0	0	495
6	0	0	0	0	511
7	0	0	0	0	504
8	0	0	0	0	528
9	0	0	0	0	497
10	0	0	0	0	508
11	0	0	0	0	505
12	0	0	0	0	511
13	0	0	0	0	528
14	0	0	0	0	531
15	0	0	0	0	533
0	0	0	0	0	536
1	0	0	0	0	575
2	0	0	0	0	514
3	0	0	0	0	515
4	0	0	0	0	498
5	0	0	0	0	489
6	0	0	0	0	480
7	0	0	0	0	509
8	0	0	0	0	479
9	0	0	0	0	464
10	0	0	0	0	481
11	0	0	0	0	495
12	0	0	0	0	493
13	0	0	0	0	503
14	0	0	0	0	513
15	0	0	0	0	510
0	0	0	0	0	556
1	0	0	0	0	722
2	0	0	0	0	985
3	0	0	0	0	734
4	0	0	0	0	328
5	0	0	0	0	312
6	0	0	0	0	418
7	0	0	0	0	467
8	0	0	0	0	429
9	0	0	0	0	450
10	0	0	0	0	454
11	0	0	0	0	464
12	0	0	0	0	474
13	0	0	0	0	480
14	0	0	0	0	497
15	0	0	0	0	499
0	0	0	0	0	496
1	0	0	0	0	504
2	0	0	0	0	526
3	0	0	0	0	524
4	0	0	0	0	528
5	0	0	0	0	502
6	0	0	0	0	527
7	0	0	0	0	532
8	0	0	0	0	541
9	0	0	0	0	515
10	0	0	0	0	532
11	0	0	0	0	530
12	0	0	0	0	514
13	0	0	0	0	521
14	0	0	0	0	510
15	0	0	0	0	481
0	0	0	0	0	478
1	0	0	0	0	464
2	0	0	0	0	467
3	0	0	0	0	466
4	0	0	0	0	470
5	0	0	0	0	470
6	0	0	0	0	464
7	0	0	0	0	462
8	0	0	0	0	497
9	0	0	0	0	478
10	0	0	0	0	491
11	0	0	0	0	500
12	0	0	0	0	495
13	0	0	0	0	489
14	0	0	0	0	498
15	0	0	0	0	503
0	0	0	0	0	503
1	0	0	0	0	495
2	0	0	0	0	504
3	0	0	0	0	496
4	0	0	0	0	498
5	0	0	0	0	504
6	0	0	0	0	503
7	0	0	0	0	518
8	0	0	0	0	493
9	0	0	0	0	496
10	0	0	0	0	511
11	0	0	0	0	505
12	0	0	0	0	500
13	0	0	0	0	512
14	0	0	0	0	511
15	0	0	0	0	505
0	0	0	0	0	502
1	0	0	0	0	500
2	0	0	0	0	504
3	0	0	0	0	508
4	0	0	0	0	513
5	0	0	0	0	511
6	0	0	0	0	507
