0.0,0.0
0.01,2.5049
0.02,4.5986
0.03,5.9473
0.04,6.3567
0.05,5.8084
0.06,4.4624
0.07,2.6255
0.08,0.6924
0.09,-0.9304
0.1,-1.9021
0.11,-2.0137
0.12,-1.2276
0.13,0.3149
0.14,2.3202
0.15,4.3983
0.16,6.1372
0.17,7.1819
0.18,7.3017
0.19,6.4352
0.2,4.7023
0.21,2.3822
0.22,-0.1391
0.23,-2.4411
0.24,-4.1481
0.25,-5.0
0.26,-4.9001
0.27,-3.9332
0.28,-2.3478
0.29,-0.5084
0.3,1.1756
0.31,2.3279
0.32,2.6786
0.33,2.1159
0.34,0.7083
0.35,-1.3081
0.36,-3.5735
0.37,-5.6732
0.38,-7.2157
0.39,-7.9074
0.4,-7.6085
0.41,-6.3593
0.42,-4.3736
0.43,-1.9976
0.44,0.3551
0.45,2.2817
0.46,3.4662
0.47,3.7385
0.48,3.1065
0.49,1.7529
0.5,0.0
0.51,-1.7529
0.52,-3.1065
0.53,-3.7385
0.54,-3.4662
0.55,-2.2817
0.56,-0.3551
0.57,1.9976
0.58,4.3736
0.59,6.3593
0.6,7.6085
0.61,7.9074
0.62,7.2157
0.63,5.6732
0.64,3.5735
0.65,1.3081
0.66,-0.7083
0.67,-2.1159
0.68,-2.6786
0.69,-2.3279
0.7,-1.1756
0.71,0.5084
0.72,2.3478
0.73,3.9332
0.74,4.9001
0.75,5.0
0.76,4.1481
0.77,2.4411
0.78,0.1391
0.79,-2.3822
0.8,-4.7023
0.81,-6.4352
0.82,-7.3017
0.83,-7.1819
0.84,-6.1372
0.85,-4.3983
0.86,-2.3202
0.87,-0.3149
0.88,1.2276
0.89,2.0137
0.9,1.9021
0.91,0.9304
0.92,-0.6924
0.93,-2.6255
0.94,-4.4624
0.95,-5.8084
0.96,-6.3567
0.97,-5.9473
0.98,-4.5986
0.99,-2.5049
1.0,-0.0
1.01,2.5049
1.02,4.5986
1.03,5.9473
1.04,6.3567
1.05,5.8084
1.06,4.4624
1.07,2.6255
1.08,0.6924
1.09,-0.9304
1.1,-1.9021
1.11,-2.0137
1.12,-1.2276
1.13,0.3149
1.14,2.3202
1.15,4.3983
1.16,6.1372
1.17,7.1819
1.18,7.3017
1.19,6.4352
1.2,4.7023
1.21,2.3822
1.22,-0.1391
1.23,-2.4411
1.24,-4.1481
1.25,-5.0
1.26,-4.9001
1.27,-3.9332
1.28,-2.3478
1.29,-0.5084
1.3,1.1756
1.31,2.3279
1.32,2.6786
1.33,2.1159
1.34,0.7083
1.35,-1.3081
1.36,-3.5735
1.37,-5.6732
1.38,-7.2157
1.39,-7.9074
1.4,-7.6085
1.41,-6.3593
1.42,-4.3736
1.43,-1.9976
1.44,0.3551
1.45,2.2817
1.46,3.4662
1.47,3.7385
1.48,3.1065
1.49,1.7529
1.5,-0.0
1.51,-1.7529
1.52,-3.1065
1.53,-3.7385
1.54,-3.4662
1.55,-2.2817
1.56,-0.3551
1.57,1.9976
1.58,4.3736
1.59,6.3593
1.6,7.6085
1.61,7.9074
1.62,7.2157
1.63,5.6732
1.64,3.5735
1.65,1.3081
1.66,-0.7083
1.67,-2.1159
1.68,-2.6786
1.69,-2.3279
1.7,-1.1756
1.71,0.5084
1.72,2.3478
1.73,3.9332
1.74,4.9001
1.75,5.0
1.76,4.1481
1.77,2.4411
1.78,0.1391
1.79,-2.3822
1.8,-4.7023
1.81,-6.4352
1.82,-7.3017
1.83,-7.1819
1.84,-6.1372
1.85,-4.3983
1.86,-2.3202
1.87,-0.3149
1.88,1.2276
1.89,2.0137
1.9,1.9021
1.91,0.9304
1.92,-0.6924
1.93,-2.6255
1.94,-4.4624
1.95,-5.8084
1.96,-6.3567
1.97,-5.9473
1.98,-4.5986
1.99,-2.5049
2.0,-0.0
2.01,2.5049
2.02,4.5986
2.03,5.9473
2.04,6.3567
2.05,5.8084
2.06,4.4624
2.07,2.6255
2.08,0.6924
2.09,-0.9304
2.1,-1.9021
2.11,-2.0137
2.12,-1.2276
2.13,0.3149
2.14,2.3202
2.15,4.3983
2.16,6.1372
2.17,7.1819
2.18,7.3017
2.19,6.4352
2.2,4.7023
2.21,2.3822
2.22,-0.1391
2.23,-2.4411
2.24,-4.1481
2.25,-5.0
2.26,-4.9001
2.27,-3.9332
2.28,-2.3478
2.29,-0.5084
2.3,1.1756
2.31,2.3279
2.32,2.6786
2.33,2.1159
2.34,0.7083
2.35,-1.3081
2.36,-3.5735
2.37,-5.6732
2.38,-7.2157
2.39,-7.9074
2.4,-7.6085
2.41,-6.3593
2.42,-4.3736
2.43,-1.9976
2.44,0.3551
2.45,2.2817
2.46,3.4662
2.47,3.7385
2.48,3.1065
2.49,1.7529
2.5,0.0
2.51,-1.7529
2.52,-3.1065
2.53,-3.7385
2.54,-3.4662
2.55,-2.2817
2.56,-0.3551
2.57,1.9976
2.58,4.3736
2.59,6.3593
2.6,7.6085
2.61,7.9074
2.62,7.2157
2.63,5.6732
2.64,3.5735
2.65,1.3081
2.66,-0.7083
2.67,-2.1159
2.68,-2.6786
2.69,-2.3279
2.7,-1.1756
2.71,0.5084
2.72,2.3478
2.73,3.9332
2.74,4.9001
2.75,5.0
2.76,4.1481
2.77,2.4411
2.78,0.1391
2.79,-2.3822
2.8,-4.7023
2.81,-6.4352
2.82,-7.3017
2.83,-7.1819
2.84,-6.1372
2.85,-4.3983
2.86,-2.3202
2.87,-0.3149
2.88,1.2276
2.89,2.0137
2.9,1.9021
2.91,0.9304
2.92,-0.6924
2.93,-2.6255
2.94,-4.4624
2.95,-5.8084
2.96,-6.3567
2.97,-5.9473
2.98,-4.5986
2.99,-2.5049
3.0,0.0
3.01,2.5049
3.02,4.5986
3.03,5.9473
3.04,6.3567
3.05,5.8084
3.06,4.4624
3.07,2.6255
3.08,0.6924
3.09,-0.9304
3.1,-1.9021
3.11,-2.0137
3.12,-1.2276
3.13,0.3149
3.14,2.3202
3.15,4.3983
3.16,6.1372
3.17,7.1819
3.18,7.3017
3.19,6.4352
3.2,4.7023
3.21,2.3822
3.22,-0.1391
3.23,-2.4411
3.24,-4.1481
3.25,-5.0
3.26,-4.9001
3.27,-3.9332
3.28,-2.3478
3.29,-0.5084
3.3,1.1756
3.31,2.3279
3.32,2.6786
3.33,2.1159
3.34,0.7083
3.35,-1.3081
3.36,-3.5735
3.37,-5.6732
3.38,-7.2157
3.39,-7.9074
3.4,-7.6085
3.41,-6.3593
3.42,-4.3736
3.43,-1.9976
3.44,0.3551
3.45,2.2817
3.46,3.4662
3.47,3.7385
3.48,3.1065
3.49,1.7529
3.5,0.0
3.51,-1.7529
3.52,-3.1065
3.53,-3.7385
3.54,-3.4662
3.55,-2.2817
3.56,-0.3551
3.57,1.9976
3.58,4.3736
3.59,6.3593
3.6,7.6085
3.61,7.9074
3.62,7.2157
3.63,5.6732
3.64,3.5735
3.65,1.3081
3.66,-0.7083
3.67,-2.1159
3.68,-2.6786
3.69,-2.3279
3.7,-1.1756
3.71,0.5084
3.72,2.3478
3.73,3.9332
3.74,4.9001
3.75,5.0
3.76,4.1481
3.77,2.4411
3.78,0.1391
3.79,-2.3822
3.8,-4.7023
3.81,-6.4352
3.82,-7.3017
3.83,-7.1819
3.84,-6.1372
3.85,-4.3983
3.86,-2.3202
3.87,-0.3149
3.88,1.2276
3.89,2.0137
3.9,1.9021
3.91,0.9304
3.92,-0.6924
3.93,-2.6255
3.94,-4.4624
3.95,-5.8084
3.96,-6.3567
3.97,-5.9473
3.98,-4.5986
3.99,-2.5049
4.0,-0.0
4.01,2.5049
4.02,4.5986
4.03,5.9473
4.04,6.3567
4.05,5.8084
4.06,4.4624
4.07,2.6255
4.08,0.6924
4.09,-0.9304
4.1,-1.9021
4.11,-2.0137
4.12,-1.2276
4.13,0.3149
4.14,2.3202
4.15,4.3983
4.16,6.1372
4.17,7.1819
4.18,7.3017
4.19,6.4352
4.2,4.7023
4.21,2.3822
4.22,-0.1391
4.23,-2.4411
4.24,-4.1481
4.25,-5.0
4.26,-4.9001
4.27,-3.9332
4.28,-2.3478
4.29,-0.5084
4.3,1.1756
4.31,2.3279
4.32,2.6786
4.33,2.1159
4.34,0.7083
4.35,-1.3081
4.36,-3.5735
4.37,-5.6732
4.38,-7.2157
4.39,-7.9074
4.4,-7.6085
4.41,-6.3593
4.42,-4.3736
4.43,-1.9976
4.44,0.3551
4.45,2.2817
4.46,3.4662
4.47,3.7385
4.48,3.1065
4.49,1.7529
4.5,-0.0
4.51,-1.7529
4.52,-3.1065
4.53,-3.7385
4.54,-3.4662
4.55,-2.2817
4.56,-0.3551
4.57,1.9976
4.58,4.3736
4.59,6.3593
4.6,7.6085
4.61,7.9074
4.62,7.2157
4.63,5.6732
4.64,3.5735
4.65,1.3081
4.66,-0.7083
4.67,-2.1159
4.68,-2.6786
4.69,-2.3279
4.7,-1.1756
4.71,0.5084
4.72,2.3478
4.73,3.9332
4.74,4.9001
4.75,5.0
4.76,4.1481
4.77,2.4411
4.78,0.1391
4.79,-2.3822
4.8,-4.7023
4.81,-6.4352
4.82,-7.3017
4.83,-7.1819
4.84,-6.1372
4.85,-4.3983
4.86,-2.3202
4.87,-0.3149
4.88,1.2276
4.89,2.0137
4.9,1.9021
4.91,0.9304
4.92,-0.6924
4.93,-2.6255
4.94,-4.4624
4.95,-5.8084
4.96,-6.3567
4.97,-5.9473
4.98,-4.5986
4.99,-2.5049
5.0,-0.0
5.01,2.5049
5.02,4.5986
5.03,5.9473
5.04,6.3567
5.05,5.8084
5.06,4.4624
5.07,2.6255
5.08,0.6924
5.09,-0.9304
5.1,-1.9021
5.11,-2.0137
5.12,-1.2276
5.13,0.3149
5.14,2.3202
5.15,4.3983
5.16,6.1372
5.17,7.1819
5.18,7.3017
5.19,6.4352
5.2,4.7023
5.21,2.3822
5.22,-0.1391
5.23,-2.4411
5.24,-4.1481
5.25,-5.0
5.26,-4.9001
5.27,-3.9332
5.28,-2.3478
5.29,-0.5084
5.3,1.1756
5.31,2.3279
5.32,2.6786
5.33,2.1159
5.34,0.7083
5.35,-1.3081
5.36,-3.5735
5.37,-5.6732
5.38,-7.2157
5.39,-7.9074
5.4,-7.6085
5.41,-6.3593
5.42,-4.3736
5.43,-1.9976
5.44,0.3551
5.45,2.2817
5.46,3.4662
5.47,3.7385
5.48,3.1065
5.49,1.7529
5.5,-0.0
5.51,-1.7529
5.52,-3.1065
5.53,-3.7385
5.54,-3.4662
5.55,-2.2817
5.56,-0.3551
5.57,1.9976
5.58,4.3736
5.59,6.3593
5.6,7.6085
5.61,7.9074
5.62,7.2157
5.63,5.6732
5.64,3.5735
5.65,1.3081
5.66,-0.7083
5.67,-2.1159
5.68,-2.6786
5.69,-2.3279
5.7,-1.1756
5.71,0.5084
5.72,2.3478
5.73,3.9332
5.74,4.9001
5.75,5.0
5.76,4.1481
5.77,2.4411
5.78,0.1391
5.79,-2.3822
5.8,-4.7023
5.81,-6.4352
5.82,-7.3017
5.83,-7.1819
5.84,-6.1372
5.85,-4.3983
5.86,-2.3202
5.87,-0.3149
5.88,1.2276
5.89,2.0137
5.9,1.9021
5.91,0.9304
5.92,-0.6924
5.93,-2.6255
5.94,-4.4624
5.95,-5.8084
5.96,-6.3567
5.97,-5.9473
5.98,-4.5986
5.99,-2.5049
6.0,0.0
6.01,2.5049
6.02,4.5986
6.03,5.9473
6.04,6.3567
6.05,5.8084
6.06,4.4624
6.07,2.6255
6.08,0.6924
6.09,-0.9304
6.1,-1.9021
6.11,-2.0137
6.12,-1.2276
6.13,0.3149
6.14,2.3202
6.15,4.3983
6.16,6.1372
6.17,7.1819
6.18,7.3017
6.19,6.4352
6.2,4.7023
6.21,2.3822
6.22,-0.1391
6.23,-2.4411
6.24,-4.1481
6.25,-5.0
6.26,-4.9001
6.27,-3.9332
6.28,-2.3478
6.29,-0.5084
6.3,1.1756
6.31,2.3279
6.32,2.6786
6.33,2.1159
6.34,0.7083
6.35,-1.3081
6.36,-3.5735
6.37,-5.6732
6.38,-7.2157
6.39,-7.9074
6.4,-7.6085
6.41,-6.3593
6.42,-4.3736
6.43,-1.9976
6.44,0.3551
6.45,2.2817
6.46,3.4662
6.47,3.7385
6.48,3.1065
6.49,1.7529
6.5,0.0
6.51,-1.7529
6.52,-3.1065
6.53,-3.7385
6.54,-3.4662
6.55,-2.2817
6.56,-0.3551
6.57,1.9976
6.58,4.3736
6.59,6.3593
6.6,7.6085
6.61,7.9074
6.62,7.2157
6.63,5.6732
6.64,3.5735
6.65,1.3081
6.66,-0.7083
6.67,-2.1159
6.68,-2.6786
6.69,-2.3279
6.7,-1.1756
6.71,0.5084
6.72,2.3478
6.73,3.9332
6.74,4.9001
6.75,5.0
6.76,4.1481
6.77,2.4411
6.78,0.1391
6.79,-2.3822
6.8,-4.7023
6.81,-6.4352
6.82,-7.3017
6.83,-7.1819
6.84,-6.1372
6.85,-4.3983
6.86,-2.3202
6.87,-0.3149
6.88,1.2276
6.89,2.0137
6.9,1.9021
6.91,0.9304
6.92,-0.6924
6.93,-2.6255
6.94,-4.4624
6.95,-5.8084
6.96,-6.3567
6.97,-5.9473
6.98,-4.5986
6.99,-2.5049
7.0,-0.0
7.01,2.5049
7.02,4.5986
7.03,5.9473
7.04,6.3567
7.05,5.8084
7.06,4.4624
7.07,2.6255
7.08,0.6924
7.09,-0.9304
7.1,-1.9021
7.11,-2.0137
7.12,-1.2276
7.13,0.3149
7.14,2.3202
7.15,4.3983
7.16,6.1372
7.17,7.1819
7.18,7.3017
7.19,6.4352
7.2,4.7023
7.21,2.3822
7.22,-0.1391
7.23,-2.4411
7.24,-4.1481
7.25,-5.0
7.26,-4.9001
7.27,-3.9332
7.28,-2.3478
7.29,-0.5084
7.3,1.1756
7.31,2.3279
7.32,2.6786
7.33,2.1159
7.34,0.7083
7.35,-1.3081
7.36,-3.5735
7.37,-5.6732
7.38,-7.2157
7.39,-7.9074
7.4,-7.6085
7.41,-6.3593
7.42,-4.3736
7.43,-1.9976
7.44,0.3551
7.45,2.2817
7.46,3.4662
7.47,3.7385
7.48,3.1065
7.49,1.7529
7.5,-0.0
7.51,-1.7529
7.52,-3.1065
7.53,-3.7385
7.54,-3.4662
7.55,-2.2817
7.56,-0.3551
7.57,1.9976
7.58,4.3736
7.59,6.3593
7.6,7.6085
7.61,7.9074
7.62,7.2157
7.63,5.6732
7.64,3.5735
7.65,1.3081
7.66,-0.7083
7.67,-2.1159
7.68,-2.6786
7.69,-2.3279
7.7,-1.1756
7.71,0.5084
7.72,2.3478
7.73,3.9332
7.74,4.9001
7.75,5.0
7.76,4.1481
7.77,2.4411
7.78,0.1391
7.79,-2.3822
7.8,-4.7023
7.81,-6.4352
7.82,-7.3017
7.83,-7.1819
7.84,-6.1372
7.85,-4.3983
7.86,-2.3202
7.87,-0.3149
7.88,1.2276
7.89,2.0137
7.9,1.9021
7.91,0.9304
7.92,-0.6924
7.93,-2.6255
7.94,-4.4624
7.95,-5.8084
7.96,-6.3567
7.97,-5.9473
7.98,-4.5986
7.99,-2.5049
8.0,-0.0
8.01,2.5049
8.02,4.5986
8.03,5.9473
8.04,6.3567
8.05,5.8084
8.06,4.4624
8.07,2.6255
8.08,0.6924
8.09,-0.9304
8.1,-1.9021
8.11,-2.0137
8.12,-1.2276
8.13,0.3149
8.14,2.3202
8.15,4.3983
8.16,6.1372
8.17,7.1819
8.18,7.3017
8.19,6.4352
8.2,4.7023
8.21,2.3822
8.22,-0.1391
8.23,-2.4411
8.24,-4.1481
8.25,-5.0
8.26,-4.9001
8.27,-3.9332
8.28,-2.3478
8.29,-0.5084
8.3,1.1756
8.31,2.3279
8.32,2.6786
8.33,2.1159
8.34,0.7083
8.35,-1.3081
8.36,-3.5735
8.37,-5.6732
8.38,-7.2157
8.39,-7.9074
8.4,-7.6085
8.41,-6.3593
8.42,-4.3736
8.43,-1.9976
8.44,0.3551
8.45,2.2817
8.46,3.4662
8.47,3.7385
8.48,3.1065
8.49,1.7529
8.5,0.0
8.51,-1.7529
8.52,-3.1065
8.53,-3.7385
8.54,-3.4662
8.55,-2.2817
8.56,-0.3551
8.57,1.9976
8.58,4.3736
8.59,6.3593
8.6,7.6085
8.61,7.9074
8.62,7.2157
8.63,5.6732
8.64,3.5735
8.65,1.3081
8.66,-0.7083
8.67,-2.1159
8.68,-2.6786
8.69,-2.3279
8.7,-1.1756
8.71,0.5084
8.72,2.3478
8.73,3.9332
8.74,4.9001
8.75,5.0
8.76,4.1481
8.77,2.4411
8.78,0.1391
8.79,-2.3822
8.8,-4.7023
8.81,-6.4352
8.82,-7.3017
8.83,-7.1819
8.84,-6.1372
8.85,-4.3983
8.86,-2.3202
8.87,-0.3149
8.88,1.2276
8.89,2.0137
8.9,1.9021
8.91,0.9304
8.92,-0.6924
8.93,-2.6255
8.94,-4.4624
8.95,-5.8084
8.96,-6.3567
8.97,-5.9473
8.98,-4.5986
8.99,-2.5049
9.0,0.0
9.01,2.5049
9.02,4.5986
9.03,5.9473
9.04,6.3567
9.05,5.8084
9.06,4.4624
9.07,2.6255
9.08,0.6924
9.09,-0.9304
9.1,-1.9021
9.11,-2.0137
9.12,-1.2276
9.13,0.3149
9.14,2.3202
9.15,4.3983
9.16,6.1372
9.17,7.1819
9.18,7.3017
9.19,6.4352
9.2,4.7023
9.21,2.3822
9.22,-0.1391
9.23,-2.4411
9.24,-4.1481
9.25,-5.0
9.26,-4.9001
9.27,-3.9332
9.28,-2.3478
9.29,-0.5084
9.3,1.1756
9.31,2.3279
9.32,2.6786
9.33,2.1159
9.34,0.7083
9.35,-1.3081
9.36,-3.5735
9.37,-5.6732
9.38,-7.2157
9.39,-7.9074
9.4,-7.6085
9.41,-6.3593
9.42,-4.3736
9.43,-1.9976
9.44,0.3551
9.45,2.2817
9.46,3.4662
9.47,3.7385
9.48,3.1065
9.49,1.7529
9.5,0.0
9.51,-1.7529
9.52,-3.1065
9.53,-3.7385
9.54,-3.4662
9.55,-2.2817
9.56,-0.3551
9.57,1.9976
9.58,4.3736
9.59,6.3593
9.6,7.6085
9.61,7.9074
9.62,7.2157
9.63,5.6732
9.64,3.5735
9.65,1.3081
9.66,-0.7083
9.67,-2.1159
9.68,-2.6786
9.69,-2.3279
9.7,-1.1756
9.71,0.5084
9.72,2.3478
9.73,3.9332
9.74,4.9001
9.75,5.0
9.76,4.1481
9.77,2.4411
9.78,0.1391
9.79,-2.3822
9.8,-4.7023
9.81,-6.4352
9.82,-7.3017
9.83,-7.1819
9.84,-6.1372
9.85,-4.3983
9.86,-2.3202
9.87,-0.3149
9.88,1.2276
9.89,2.0137
9.9,1.9021
9.91,0.9304
9.92,-0.6924
9.93,-2.6255
9.94,-4.4624
9.95,-5.8084
9.96,-6.3567
9.97,-5.9473
9.98,-4.5986
9.99,-2.5049
